date,close
2018-01-02 00:00:00-05:00,81.82162475585938
2018-01-03 00:00:00-05:00,83.04182434082031
2018-01-04 00:00:00-05:00,83.0567855834961
2018-01-05 00:00:00-05:00,83.9700927734375
2018-01-08 00:00:00-05:00,84.37431335449219
2018-01-09 00:00:00-05:00,83.625732421875
2018-01-10 00:00:00-05:00,83.85033416748047
2018-01-11 00:00:00-05:00,86.19339752197266
2018-01-12 00:00:00-05:00,86.61260223388672
2018-01-16 00:00:00-05:00,85.00679016113281
2018-01-17 00:00:00-05:00,85.11178588867188
2018-01-18 00:00:00-05:00,85.64404296875
2018-01-19 00:00:00-05:00,85.74148559570312
2018-01-22 00:00:00-05:00,87.57823181152344
2018-01-23 00:00:00-05:00,88.3428955078125
2018-01-24 00:00:00-05:00,88.81521606445312
2018-01-25 00:00:00-05:00,88.05052947998047
2018-01-26 00:00:00-05:00,88.28290557861328
2018-01-29 00:00:00-05:00,87.39830017089844
2018-01-30 00:00:00-05:00,86.34122467041016
2018-01-31 00:00:00-05:00,86.21381378173828
2018-02-01 00:00:00-05:00,87.35330963134766
2018-02-02 00:00:00-05:00,84.58698272705078
2018-02-05 00:00:00-05:00,82.13550567626953
2018-02-06 00:00:00-05:00,81.16841125488281
2018-02-07 00:00:00-05:00,79.30171203613281
2018-02-08 00:00:00-05:00,75.7481918334961
2018-02-09 00:00:00-05:00,75.02100372314453
2018-02-12 00:00:00-05:00,77.32252502441406
2018-02-13 00:00:00-05:00,76.82023620605469
2018-02-14 00:00:00-05:00,80.03638458251953
2018-02-15 00:00:00-05:00,80.73358917236328
2018-02-16 00:00:00-05:00,80.69609832763672
2018-02-20 00:00:00-05:00,80.93602752685547
2018-02-21 00:00:00-05:00,79.32418823242188
2018-02-22 00:00:00-05:00,80.28378295898438
2018-02-23 00:00:00-05:00,81.58824920654297
2018-02-26 00:00:00-05:00,82.08303833007812
2018-02-27 00:00:00-05:00,80.17133331298828
2018-02-28 00:00:00-05:00,76.0330581665039
2018-03-01 00:00:00-05:00,75.85315704345703
2018-03-02 00:00:00-05:00,76.0555419921875
2018-03-05 00:00:00-05:00,76.325439453125
2018-03-06 00:00:00-05:00,75.72570037841797
2018-03-07 00:00:00-05:00,75.62076568603516
2018-03-08 00:00:00-05:00,75.41081237792969
2018-03-09 00:00:00-05:00,77.06764221191406
2018-03-12 00:00:00-04:00,75.455810546875
2018-03-13 00:00:00-04:00,75.0060043334961
2018-03-14 00:00:00-04:00,74.88605499267578
2018-03-15 00:00:00-04:00,73.9564437866211
2018-03-16 00:00:00-04:00,75.30587768554688
2018-03-19 00:00:00-04:00,73.82149505615234
2018-03-20 00:00:00-04:00,75.96563720703125
2018-03-21 00:00:00-04:00,78.552001953125
2018-03-22 00:00:00-04:00,78.18466186523438
2018-03-23 00:00:00-04:00,79.3616714477539
2018-03-26 00:00:00-04:00,80.64360809326172
2018-03-27 00:00:00-04:00,79.71405029296875
2018-03-28 00:00:00-04:00,77.83230590820312
2018-03-29 00:00:00-04:00,78.91931915283203
2018-04-02 00:00:00-04:00,77.16510009765625
2018-04-03 00:00:00-04:00,78.76941680908203
2018-04-04 00:00:00-04:00,78.09471893310547
2018-04-05 00:00:00-04:00,78.25213623046875
2018-04-06 00:00:00-04:00,76.4154281616211
2018-04-09 00:00:00-04:00,77.50245666503906
2018-04-10 00:00:00-04:00,80.71112823486328
2018-04-11 00:00:00-04:00,82.01557922363281
2018-04-12 00:00:00-04:00,82.45039367675781
2018-04-13 00:00:00-04:00,83.37028503417969
2018-04-16 00:00:00-04:00,83.37028503417969
2018-04-17 00:00:00-04:00,83.4679183959961
2018-04-18 00:00:00-04:00,84.74451446533203
2018-04-19 00:00:00-04:00,85.63814544677734
2018-04-20 00:00:00-04:00,85.58557891845703
2018-04-23 00:00:00-04:00,86.23890686035156
2018-04-24 00:00:00-04:00,86.05117797851562
2018-04-25 00:00:00-04:00,86.6594467163086
2018-04-26 00:00:00-04:00,88.3265380859375
2018-04-27 00:00:00-04:00,87.7032470703125
2018-04-30 00:00:00-04:00,88.73954010009766
2018-05-01 00:00:00-04:00,88.28147888183594
2018-05-02 00:00:00-04:00,87.59813690185547
2018-05-03 00:00:00-04:00,87.11751556396484
2018-05-04 00:00:00-04:00,86.10372924804688
2018-05-07 00:00:00-04:00,85.52549743652344
2018-05-08 00:00:00-04:00,86.57682800292969
2018-05-09 00:00:00-04:00,88.4542007446289
2018-05-10 00:00:00-04:00,89.32530212402344
2018-05-11 00:00:00-04:00,88.16886138916016
2018-05-14 00:00:00-04:00,89.12255096435547
2018-05-15 00:00:00-04:00,90.28653717041016
2018-05-16 00:00:00-04:00,91.240234375
2018-05-17 00:00:00-04:00,94.73213195800781
2018-05-18 00:00:00-04:00,94.46178436279297
2018-05-21 00:00:00-04:00,95.70836639404297
2018-05-22 00:00:00-04:00,92.93737030029297
2018-05-23 00:00:00-04:00,92.35163116455078
2018-05-24 00:00:00-04:00,90.09880065917969
2018-05-25 00:00:00-04:00,88.43165588378906
2018-05-29 00:00:00-04:00,87.26770782470703
2018-05-30 00:00:00-04:00,89.9335708618164
2018-05-31 00:00:00-04:00,88.46920776367188
2018-06-01 00:00:00-04:00,88.87474060058594
2018-06-04 00:00:00-04:00,89.11506652832031
2018-06-05 00:00:00-04:00,87.54557800292969
2018-06-06 00:00:00-04:00,87.21512603759766
2018-06-07 00:00:00-04:00,88.55935668945312
2018-06-08 00:00:00-04:00,88.36409759521484
2018-06-11 00:00:00-04:00,88.61943054199219
2018-06-12 00:00:00-04:00,88.96485900878906
2018-06-13 00:00:00-04:00,88.79963684082031
2018-06-14 00:00:00-04:00,88.25895690917969
2018-06-15 00:00:00-04:00,85.7432861328125
2018-06-18 00:00:00-04:00,87.57559967041016
2018-06-19 00:00:00-04:00,87.92103576660156
2018-06-20 00:00:00-04:00,89.68577575683594
2018-06-21 00:00:00-04:00,87.5605697631836
2018-06-22 00:00:00-04:00,88.99488830566406
2018-06-25 00:00:00-04:00,87.7332763671875
2018-06-26 00:00:00-04:00,89.87349700927734
2018-06-27 00:00:00-04:00,93.0650405883789
2018-06-28 00:00:00-04:00,92.74211883544922
2018-06-29 00:00:00-04:00,93.44049835205078
2018-07-02 00:00:00-04:00,91.91607666015625
2018-07-03 00:00:00-04:00,91.93859100341797
2018-07-05 00:00:00-04:00,92.53187561035156
2018-07-06 00:00:00-04:00,93.38044738769531
2018-07-09 00:00:00-04:00,94.71711730957031
2018-07-10 00:00:00-04:00,95.3479232788086
2018-07-11 00:00:00-04:00,93.61321258544922
2018-07-12 00:00:00-04:00,93.22273254394531
2018-07-13 00:00:00-04:00,94.58946228027344
2018-07-16 00:00:00-04:00,93.71331787109375
2018-07-17 00:00:00-04:00,93.49522399902344
2018-07-18 00:00:00-04:00,92.9386978149414
2018-07-19 00:00:00-04:00,92.04375457763672
2018-07-20 00:00:00-04:00,92.01365661621094
2018-07-23 00:00:00-04:00,92.39722442626953
2018-07-24 00:00:00-04:00,94.47289276123047
2018-07-25 00:00:00-04:00,96.54857635498047
2018-07-26 00:00:00-04:00,96.90955352783203
2018-07-27 00:00:00-04:00,97.12763977050781
2018-07-30 00:00:00-04:00,97.69168090820312
2018-07-31 00:00:00-04:00,96.9697036743164
2018-08-01 00:00:00-04:00,94.4352798461914
2018-08-02 00:00:00-04:00,94.7060317993164
2018-08-03 00:00:00-04:00,92.05880737304688
2018-08-06 00:00:00-04:00,93.17933654785156
2018-08-07 00:00:00-04:00,93.57794952392578
2018-08-08 00:00:00-04:00,92.32953643798828
2018-08-09 00:00:00-04:00,91.98358917236328
2018-08-10 00:00:00-04:00,92.32953643798828
2018-08-13 00:00:00-04:00,91.37445068359375
2018-08-14 00:00:00-04:00,92.55517578125
2018-08-15 00:00:00-04:00,86.8170166015625
2018-08-16 00:00:00-04:00,87.17048645019531
2018-08-17 00:00:00-04:00,86.31310272216797
2018-08-20 00:00:00-04:00,86.31310272216797
2018-08-21 00:00:00-04:00,86.85459899902344
2018-08-22 00:00:00-04:00,88.23085021972656
2018-08-23 00:00:00-04:00,87.53897094726562
2018-08-24 00:00:00-04:00,88.33614349365234
2018-08-27 00:00:00-04:00,89.23104858398438
2018-08-28 00:00:00-04:00,88.71966552734375
2018-08-29 00:00:00-04:00,89.32884979248047
2018-08-30 00:00:00-04:00,89.4266128540039
2018-08-31 00:00:00-04:00,88.91522216796875
2018-09-04 00:00:00-04:00,88.50157928466797
2018-09-05 00:00:00-04:00,88.65951538085938
2018-09-06 00:00:00-04:00,86.86211395263672
2018-09-07 00:00:00-04:00,86.08749389648438
2018-09-10 00:00:00-04:00,85.97470092773438
2018-09-11 00:00:00-04:00,87.4035873413086
2018-09-12 00:00:00-04:00,87.945068359375
2018-09-13 00:00:00-04:00,87.70440673828125
2018-09-14 00:00:00-04:00,88.60686492919922
2018-09-17 00:00:00-04:00,88.39630126953125
2018-09-18 00:00:00-04:00,89.83271789550781
2018-09-19 00:00:00-04:00,90.37419891357422
2018-09-20 00:00:00-04:00,89.6522216796875
2018-09-21 00:00:00-04:00,89.84027099609375
2018-09-24 00:00:00-04:00,93.24705505371094
2018-09-25 00:00:00-04:00,94.48792266845703
2018-09-26 00:00:00-04:00,94.23975372314453
2018-09-27 00:00:00-04:00,95.51071166992188
2018-09-28 00:00:00-04:00,95.93939208984375
2018-10-01 00:00:00-04:00,97.38333892822266
2018-10-02 00:00:00-04:00,97.76688385009766
2018-10-03 00:00:00-04:00,98.05266571044922
2018-10-04 00:00:00-04:00,97.93984985351562
2018-10-05 00:00:00-04:00,98.5565414428711
2018-10-08 00:00:00-04:00,97.63903045654297
2018-10-09 00:00:00-04:00,99.53421020507812
2018-10-10 00:00:00-04:00,95.11212921142578
2018-10-11 00:00:00-04:00,91.46466064453125
2018-10-12 00:00:00-04:00,91.88583374023438
2018-10-15 00:00:00-04:00,92.17913055419922
2018-10-16 00:00:00-04:00,92.11131286621094
2018-10-17 00:00:00-04:00,90.51409149169922
2018-10-18 00:00:00-04:00,89.3161849975586
2018-10-19 00:00:00-04:00,88.65319061279297
2018-10-22 00:00:00-04:00,87.58336639404297
2018-10-23 00:00:00-04:00,83.71837615966797
2018-10-24 00:00:00-04:00,79.96643829345703
2018-10-25 00:00:00-04:00,80.70475769042969
2018-10-26 00:00:00-04:00,80.2828598022461
2018-10-29 00:00:00-04:00,76.87744903564453
2018-10-30 00:00:00-04:00,79.49178314208984
2018-10-31 00:00:00-04:00,79.36370086669922
2018-11-01 00:00:00-04:00,80.531494140625
2018-11-02 00:00:00-04:00,77.11101531982422
2018-11-05 00:00:00-05:00,80.12464141845703
2018-11-06 00:00:00-05:00,80.86299133300781
2018-11-07 00:00:00-05:00,82.23416900634766
2018-11-08 00:00:00-05:00,78.99454498291016
2018-11-09 00:00:00-05:00,79.49178314208984
2018-11-12 00:00:00-05:00,76.28227996826172
2018-11-13 00:00:00-05:00,74.22547912597656
2018-11-14 00:00:00-05:00,73.88646697998047
2018-11-15 00:00:00-05:00,76.5384292602539
2018-11-16 00:00:00-05:00,79.25823974609375
2018-11-19 00:00:00-05:00,79.6424789428711
2018-11-20 00:00:00-05:00,77.11856079101562
2018-11-21 00:00:00-05:00,79.86094665527344
2018-11-23 00:00:00-05:00,75.86791229248047
2018-11-26 00:00:00-05:00,77.2541732788086
2018-11-27 00:00:00-05:00,76.80965423583984
2018-11-28 00:00:00-05:00,78.18085479736328
2018-11-29 00:00:00-05:00,79.4616470336914
2018-11-30 00:00:00-05:00,77.83428955078125
2018-12-03 00:00:00-05:00,81.45062255859375
2018-12-04 00:00:00-05:00,78.40687561035156
2018-12-06 00:00:00-05:00,76.94528198242188
2018-12-07 00:00:00-05:00,78.06031799316406
2018-12-10 00:00:00-05:00,76.62885284423828
2018-12-11 00:00:00-05:00,76.90008544921875
2018-12-12 00:00:00-05:00,78.30142211914062
2018-12-13 00:00:00-05:00,77.47264862060547
2018-12-14 00:00:00-05:00,75.40081024169922
2018-12-17 00:00:00-05:00,72.48512268066406
2018-12-18 00:00:00-05:00,70.82762908935547
2018-12-19 00:00:00-05:00,70.0516128540039
2018-12-20 00:00:00-05:00,67.61058044433594
2018-12-21 00:00:00-05:00,65.74214935302734
2018-12-24 00:00:00-05:00,62.42716598510742
2018-12-26 00:00:00-05:00,67.0455322265625
2018-12-27 00:00:00-05:00,66.89483642578125
2018-12-28 00:00:00-05:00,65.93799591064453
2018-12-31 00:00:00-05:00,65.70445251464844
2019-01-02 00:00:00-05:00,68.26602935791016
2019-01-03 00:00:00-05:00,67.78387451171875
2019-01-04 00:00:00-05:00,70.75982666015625
2019-01-07 00:00:00-05:00,71.2043228149414
2019-01-08 00:00:00-05:00,71.96525573730469
2019-01-09 00:00:00-05:00,74.73025512695312
2019-01-10 00:00:00-05:00,74.6775131225586
2019-01-11 00:00:00-05:00,72.98237609863281
2019-01-14 00:00:00-05:00,74.21794891357422
2019-01-15 00:00:00-05:00,74.2782211303711
2019-01-16 00:00:00-05:00,74.5047607421875
2019-01-17 00:00:00-05:00,74.79168701171875
2019-01-18 00:00:00-05:00,76.30184173583984
2019-01-22 00:00:00-05:00,73.13802337646484
2019-01-23 00:00:00-05:00,72.9190444946289
2019-01-24 00:00:00-05:00,73.42496490478516
2019-01-25 00:00:00-05:00,74.8294448852539
2019-01-28 00:00:00-05:00,74.07433319091797
2019-01-29 00:00:00-05:00,74.65575408935547
2019-01-30 00:00:00-05:00,75.0937271118164
2019-01-31 00:00:00-05:00,74.9049301147461
2019-02-01 00:00:00-05:00,74.64064025878906
2019-02-04 00:00:00-05:00,75.04085540771484
2019-02-05 00:00:00-05:00,74.26312255859375
2019-02-06 00:00:00-05:00,72.62458801269531
2019-02-07 00:00:00-05:00,70.21582794189453
2019-02-08 00:00:00-05:00,69.84583282470703
2019-02-11 00:00:00-05:00,71.13703918457031
2019-02-12 00:00:00-05:00,72.20926666259766
2019-02-13 00:00:00-05:00,73.05497741699219
2019-02-14 00:00:00-05:00,73.21356201171875
2019-02-15 00:00:00-05:00,75.69779968261719
2019-02-19 00:00:00-05:00,75.2900390625
2019-02-20 00:00:00-05:00,74.58778381347656
2019-02-21 00:00:00-05:00,71.99786376953125
2019-02-22 00:00:00-05:00,72.13378143310547
2019-02-25 00:00:00-05:00,71.5447769165039
2019-02-26 00:00:00-05:00,70.9105224609375
2019-02-27 00:00:00-05:00,71.76378631591797
2019-02-28 00:00:00-05:00,70.9784927368164
2019-03-01 00:00:00-05:00,72.80579376220703
2019-03-04 00:00:00-05:00,73.10027313232422
2019-03-05 00:00:00-05:00,72.1111068725586
2019-03-06 00:00:00-05:00,69.42301940917969
2019-03-07 00:00:00-05:00,68.97750091552734
2019-03-08 00:00:00-05:00,65.27000427246094
2019-03-11 00:00:00-04:00,65.13409423828125
2019-03-12 00:00:00-04:00,65.677734375
2019-03-13 00:00:00-04:00,66.87834930419922
2019-03-14 00:00:00-04:00,67.72406768798828
2019-03-15 00:00:00-04:00,67.08975219726562
2019-03-18 00:00:00-04:00,69.40789031982422
2019-03-19 00:00:00-04:00,70.13277435302734
2019-03-20 00:00:00-04:00,72.40560150146484
2019-03-21 00:00:00-04:00,73.14557647705078
2019-03-22 00:00:00-04:00,70.73684692382812
2019-03-25 00:00:00-04:00,70.05725860595703
2019-03-26 00:00:00-04:00,71.55988311767578
2019-03-27 00:00:00-04:00,71.42399597167969
2019-03-28 00:00:00-04:00,71.914794921875
2019-03-29 00:00:00-04:00,71.86946868896484
2019-04-01 00:00:00-04:00,73.19844055175781
2019-04-02 00:00:00-04:00,72.52641296386719
2019-04-03 00:00:00-04:00,70.92562866210938
2019-04-04 00:00:00-04:00,70.72929382324219
2019-04-05 00:00:00-04:00,74.47454833984375
2019-04-08 00:00:00-04:00,75.11640167236328
2019-04-09 00:00:00-04:00,74.4292221069336
2019-04-10 00:00:00-04:00,74.55005645751953
2019-04-11 00:00:00-04:00,74.55005645751953
2019-04-12 00:00:00-04:00,79.51854705810547
2019-04-15 00:00:00-04:00,77.271240234375
2019-04-16 00:00:00-04:00,77.44525909423828
2019-04-17 00:00:00-04:00,77.05936431884766
2019-04-18 00:00:00-04:00,78.59542083740234
2019-04-22 00:00:00-04:00,81.0167465209961
2019-04-23 00:00:00-04:00,80.66110229492188
2019-04-24 00:00:00-04:00,78.64836883544922
2019-04-25 00:00:00-04:00,77.240966796875
2019-04-26 00:00:00-04:00,74.06295013427734
2019-04-29 00:00:00-04:00,73.39708709716797
2019-04-30 00:00:00-04:00,72.67825317382812
2019-05-01 00:00:00-04:00,69.53047180175781
2019-05-02 00:00:00-04:00,67.47235107421875
2019-05-03 00:00:00-04:00,68.78138732910156
2019-05-06 00:00:00-04:00,69.03865051269531
2019-05-07 00:00:00-04:00,69.4472427368164
2019-05-08 00:00:00-04:00,71.14979553222656
2019-05-09 00:00:00-04:00,71.30867004394531
2019-05-10 00:00:00-04:00,71.88375854492188
2019-05-13 00:00:00-04:00,70.74874877929688
2019-05-14 00:00:00-04:00,71.38434600830078
2019-05-15 00:00:00-04:00,71.39947509765625
2019-05-16 00:00:00-04:00,72.01993560791016
2019-05-17 00:00:00-04:00,70.3855209350586
2019-05-20 00:00:00-04:00,70.88493347167969
2019-05-21 00:00:00-04:00,72.36043548583984
2019-05-22 00:00:00-04:00,70.30229187011719
2019-05-23 00:00:00-04:00,67.2302017211914
2019-05-24 00:00:00-04:00,65.95144653320312
2019-05-28 00:00:00-04:00,65.9135971069336
2019-05-29 00:00:00-04:00,65.3990707397461
2019-05-30 00:00:00-04:00,63.53009796142578
2019-05-31 00:00:00-04:00,61.95621109008789
2019-06-03 00:00:00-04:00,62.765865325927734
2019-06-04 00:00:00-04:00,63.772216796875
2019-06-05 00:00:00-04:00,62.06972885131836
2019-06-06 00:00:00-04:00,63.7646598815918
2019-06-07 00:00:00-04:00,64.0143814086914
2019-06-10 00:00:00-04:00,64.46836853027344
2019-06-11 00:00:00-04:00,65.45201110839844
2019-06-12 00:00:00-04:00,64.33971405029297
2019-06-13 00:00:00-04:00,65.4444580078125
2019-06-14 00:00:00-04:00,64.44566345214844
2019-06-17 00:00:00-04:00,64.67266082763672
2019-06-18 00:00:00-04:00,66.81404876708984
2019-06-19 00:00:00-04:00,67.07891082763672
2019-06-20 00:00:00-04:00,69.19756317138672
2019-06-21 00:00:00-04:00,69.89371490478516
2019-06-24 00:00:00-04:00,68.52411651611328
2019-06-25 00:00:00-04:00,68.13065338134766
2019-06-26 00:00:00-04:00,70.43846893310547
2019-06-27 00:00:00-04:00,69.69694519042969
2019-06-28 00:00:00-04:00,70.49148559570312
2019-07-01 00:00:00-04:00,70.43846893310547
2019-07-02 00:00:00-04:00,66.25410461425781
2019-07-03 00:00:00-04:00,65.9817123413086
2019-07-05 00:00:00-04:00,67.01834106445312
2019-07-08 00:00:00-04:00,68.21388244628906
2019-07-09 00:00:00-04:00,67.45721435546875
2019-07-10 00:00:00-04:00,68.59977722167969
2019-07-11 00:00:00-04:00,68.7359848022461
2019-07-12 00:00:00-04:00,68.78138732910156
2019-07-15 00:00:00-04:00,67.15453338623047
2019-07-16 00:00:00-04:00,66.04468536376953
2019-07-17 00:00:00-04:00,64.670654296875
2019-07-18 00:00:00-04:00,64.85285949707031
2019-07-19 00:00:00-04:00,66.07505798339844
2019-07-22 00:00:00-04:00,66.20411682128906
2019-07-23 00:00:00-04:00,66.49256896972656
2019-07-24 00:00:00-04:00,66.56089782714844
2019-07-25 00:00:00-04:00,64.8832015991211
2019-07-26 00:00:00-04:00,63.98744583129883
2019-07-29 00:00:00-04:00,63.706546783447266
2019-07-30 00:00:00-04:00,65.33110046386719
2019-07-31 00:00:00-04:00,65.17167663574219
2019-08-01 00:00:00-04:00,61.54302215576172
2019-08-02 00:00:00-04:00,62.598228454589844
2019-08-05 00:00:00-04:00,59.97161865234375
2019-08-06 00:00:00-04:00,59.425025939941406
2019-08-07 00:00:00-04:00,58.87086486816406
2019-08-08 00:00:00-04:00,61.004024505615234
2019-08-09 00:00:00-04:00,60.25248336791992
2019-08-12 00:00:00-04:00,59.15175247192383
2019-08-13 00:00:00-04:00,59.60723114013672
2019-08-14 00:00:00-04:00,56.95025634765625
2019-08-15 00:00:00-04:00,56.88951873779297
2019-08-16 00:00:00-04:00,57.633480072021484
2019-08-19 00:00:00-04:00,59.06824493408203
2019-08-20 00:00:00-04:00,58.218013763427734
2019-08-21 00:00:00-04:00,58.620365142822266
2019-08-22 00:00:00-04:00,57.32225799560547
2019-08-23 00:00:00-04:00,54.4678955078125
2019-08-26 00:00:00-04:00,54.84746551513672
2019-08-27 00:00:00-04:00,54.399566650390625
2019-08-28 00:00:00-04:00,55.06002426147461
2019-08-29 00:00:00-04:00,56.54032897949219
2019-08-30 00:00:00-04:00,56.320194244384766
2019-09-03 00:00:00-04:00,56.27463912963867
2019-09-04 00:00:00-04:00,57.367774963378906
2019-09-05 00:00:00-04:00,57.39054870605469
2019-09-06 00:00:00-04:00,58.028221130371094
2019-09-09 00:00:00-04:00,60.730743408203125
2019-09-10 00:00:00-04:00,60.80664825439453
2019-09-11 00:00:00-04:00,61.51264953613281
2019-09-12 00:00:00-04:00,60.487831115722656
2019-09-13 00:00:00-04:00,60.26768493652344
2019-09-16 00:00:00-04:00,65.01226806640625
2019-09-17 00:00:00-04:00,61.656890869140625
2019-09-18 00:00:00-04:00,61.73280334472656
2019-09-19 00:00:00-04:00,61.952945709228516
2019-09-20 00:00:00-04:00,61.48987579345703
2019-09-23 00:00:00-04:00,60.82943344116211
2019-09-24 00:00:00-04:00,59.63759994506836
2019-09-25 00:00:00-04:00,58.27874755859375
2019-09-26 00:00:00-04:00,57.003387451171875
2019-09-27 00:00:00-04:00,56.919891357421875
2019-09-30 00:00:00-04:00,56.342960357666016
2019-10-01 00:00:00-04:00,54.338836669921875
2019-10-02 00:00:00-04:00,52.98758316040039
2019-10-03 00:00:00-04:00,53.77707290649414
2019-10-04 00:00:00-04:00,53.837806701660156
2019-10-07 00:00:00-04:00,52.95722198486328
2019-10-08 00:00:00-04:00,52.1753044128418
2019-10-09 00:00:00-04:00,52.06901931762695
2019-10-10 00:00:00-04:00,52.31194305419922
2019-10-11 00:00:00-04:00,52.57004928588867
2019-10-14 00:00:00-04:00,51.765377044677734
2019-10-15 00:00:00-04:00,52.57004928588867
2019-10-16 00:00:00-04:00,51.97392654418945
2019-10-17 00:00:00-04:00,50.899085998535156
2019-10-18 00:00:00-04:00,49.12290954589844
2019-10-21 00:00:00-04:00,51.57753372192383
2019-10-22 00:00:00-04:00,53.03354263305664
2019-10-23 00:00:00-04:00,54.84019470214844
2019-10-24 00:00:00-04:00,54.86307144165039
2019-10-25 00:00:00-04:00,55.25183868408203
2019-10-28 00:00:00-04:00,54.161746978759766
2019-10-29 00:00:00-04:00,54.7410888671875
2019-10-30 00:00:00-04:00,53.071651458740234
2019-10-31 00:00:00-04:00,52.8353385925293
2019-11-01 00:00:00-04:00,54.23797607421875
2019-11-04 00:00:00-05:00,56.17424011230469
2019-11-05 00:00:00-05:00,56.41816329956055
2019-11-06 00:00:00-05:00,54.443790435791016
2019-11-07 00:00:00-05:00,56.97464370727539
2019-11-08 00:00:00-05:00,56.944149017333984
2019-11-11 00:00:00-05:00,56.27332305908203
2019-11-12 00:00:00-05:00,55.86931228637695
2019-11-13 00:00:00-05:00,55.35093688964844
2019-11-14 00:00:00-05:00,55.15275955200195
2019-11-15 00:00:00-05:00,56.014156341552734
2019-11-18 00:00:00-05:00,54.32182693481445
2019-11-19 00:00:00-05:00,53.666255950927734
2019-11-20 00:00:00-05:00,54.93167495727539
2019-11-21 00:00:00-05:00,55.892173767089844
2019-11-22 00:00:00-05:00,55.64060974121094
2019-11-25 00:00:00-05:00,56.044639587402344
2019-11-26 00:00:00-05:00,54.81733322143555
2019-11-27 00:00:00-05:00,55.15275955200195
2019-11-29 00:00:00-05:00,54.04740524291992
2019-12-02 00:00:00-05:00,53.96355438232422
2019-12-03 00:00:00-05:00,52.43132019042969
2019-12-04 00:00:00-05:00,54.924049377441406
2019-12-05 00:00:00-05:00,53.81108474731445
2019-12-06 00:00:00-05:00,56.38004684448242
2019-12-09 00:00:00-05:00,56.79932403564453
2019-12-10 00:00:00-05:00,57.050899505615234
2019-12-11 00:00:00-05:00,56.92128372192383
2019-12-12 00:00:00-05:00,58.476375579833984
2019-12-13 00:00:00-05:00,57.54637908935547
2019-12-16 00:00:00-05:00,59.391178131103516
2019-12-17 00:00:00-05:00,60.07722854614258
2019-12-18 00:00:00-05:00,61.43411636352539
2019-12-19 00:00:00-05:00,61.937252044677734
2019-12-20 00:00:00-05:00,63.012107849121094
2019-12-23 00:00:00-05:00,63.560951232910156
2019-12-24 00:00:00-05:00,63.88874053955078
2019-12-26 00:00:00-05:00,63.76676940917969
2019-12-27 00:00:00-05:00,63.37800979614258
2019-12-30 00:00:00-05:00,62.80628204345703
2019-12-31 00:00:00-05:00,63.85063171386719
2020-01-02 00:00:00-05:00,64.14030456542969
2020-01-03 00:00:00-05:00,64.78829193115234
2020-01-06 00:00:00-05:00,67.4182357788086
2020-01-07 00:00:00-05:00,68.0661849975586
2020-01-08 00:00:00-05:00,66.57968139648438
2020-01-09 00:00:00-05:00,67.27339935302734
2020-01-10 00:00:00-05:00,65.7640609741211
2020-01-13 00:00:00-05:00,65.19229888916016
2020-01-14 00:00:00-05:00,65.80976104736328
2020-01-15 00:00:00-05:00,66.12229919433594
2020-01-16 00:00:00-05:00,66.55674743652344
2020-01-17 00:00:00-05:00,65.24884796142578
2020-01-21 00:00:00-05:00,64.27750396728516
2020-01-22 00:00:00-05:00,63.5509033203125
2020-01-23 00:00:00-05:00,62.587215423583984
2020-01-24 00:00:00-05:00,61.07279968261719
2020-01-27 00:00:00-05:00,58.61766052246094
2020-01-28 00:00:00-05:00,58.931236267089844
2020-01-29 00:00:00-05:00,57.47039794921875
2020-01-30 00:00:00-05:00,57.99049758911133
2020-01-31 00:00:00-05:00,55.764793395996094
2020-02-03 00:00:00-05:00,54.58693313598633
2020-02-04 00:00:00-05:00,56.307823181152344
2020-02-05 00:00:00-05:00,58.931236267089844
2020-02-06 00:00:00-05:00,58.028743743896484
2020-02-07 00:00:00-05:00,56.866172790527344
2020-02-10 00:00:00-05:00,56.369014739990234
2020-02-11 00:00:00-05:00,57.202701568603516
2020-02-12 00:00:00-05:00,57.6539421081543
2020-02-13 00:00:00-05:00,57.88339614868164
2020-02-14 00:00:00-05:00,57.3021240234375
2020-02-18 00:00:00-05:00,57.00382995605469
2020-02-19 00:00:00-05:00,59.10717010498047
2020-02-20 00:00:00-05:00,58.120513916015625
2020-02-21 00:00:00-05:00,56.75909423828125
2020-02-24 00:00:00-05:00,53.470252990722656
2020-02-25 00:00:00-05:00,51.23690414428711
2020-02-26 00:00:00-05:00,48.33815383911133
2020-02-27 00:00:00-05:00,45.89064407348633
2020-02-28 00:00:00-05:00,48.38404846191406
2020-03-02 00:00:00-05:00,48.07810592651367
2020-03-03 00:00:00-05:00,47.74921798706055
2020-03-04 00:00:00-05:00,49.01121139526367
2020-03-05 00:00:00-05:00,47.32089614868164
2020-03-06 00:00:00-05:00,42.295875549316406
2020-03-09 00:00:00-04:00,28.758140563964844
2020-03-10 00:00:00-04:00,31.817522048950195
2020-03-11 00:00:00-04:00,29.721839904785156
2020-03-12 00:00:00-04:00,24.857437133789062
2020-03-13 00:00:00-04:00,26.616573333740234
2020-03-16 00:00:00-04:00,23.786653518676758
2020-03-17 00:00:00-04:00,23.626035690307617
2020-03-18 00:00:00-04:00,22.761760711669922
2020-03-19 00:00:00-04:00,25.408123016357422
2020-03-20 00:00:00-04:00,26.68541145324707
2020-03-23 00:00:00-04:00,26.417720794677734
2020-03-24 00:00:00-04:00,30.4408016204834
2020-03-25 00:00:00-04:00,30.356651306152344
2020-03-26 00:00:00-04:00,30.23429298400879
2020-03-27 00:00:00-04:00,27.534387588500977
2020-03-30 00:00:00-04:00,26.754247665405273
2020-03-31 00:00:00-04:00,27.473201751708984
2020-04-01 00:00:00-04:00,26.463613510131836
2020-04-02 00:00:00-04:00,29.293533325195312
2020-04-03 00:00:00-04:00,30.50963020324707
2020-04-06 00:00:00-04:00,30.157804489135742
2020-04-07 00:00:00-04:00,31.611003875732422
2020-04-08 00:00:00-04:00,34.639793395996094
2020-04-09 00:00:00-04:00,34.28031539916992
2020-04-13 00:00:00-04:00,33.1101188659668
2020-04-14 00:00:00-04:00,32.29936981201172
2020-04-15 00:00:00-04:00,30.782981872558594
2020-04-16 00:00:00-04:00,28.182369232177734
2020-04-17 00:00:00-04:00,32.28778839111328
2020-04-20 00:00:00-04:00,31.770748138427734
2020-04-21 00:00:00-04:00,31.253719329833984
2020-04-22 00:00:00-04:00,33.2987174987793
2020-04-23 00:00:00-04:00,34.12443542480469
2020-04-24 00:00:00-04:00,33.46076965332031
2020-04-27 00:00:00-04:00,34.371376037597656
2020-04-28 00:00:00-04:00,34.7109260559082
2020-04-29 00:00:00-04:00,36.82537078857422
2020-04-30 00:00:00-04:00,36.66331100463867
2020-05-01 00:00:00-04:00,34.39452362060547
2020-05-04 00:00:00-04:00,36.06909942626953
2020-05-05 00:00:00-04:00,35.53663635253906
2020-05-06 00:00:00-04:00,35.37458038330078
2020-05-07 00:00:00-04:00,37.28067398071289
2020-05-08 00:00:00-04:00,39.703792572021484
2020-05-11 00:00:00-04:00,38.461360931396484
2020-05-12 00:00:00-04:00,38.3687629699707
2020-05-13 00:00:00-04:00,37.19578552246094
2020-05-14 00:00:00-04:00,36.7018928527832
2020-05-15 00:00:00-04:00,36.79450225830078
2020-05-18 00:00:00-04:00,40.4677848815918
2020-05-19 00:00:00-04:00,39.09415817260742
2020-05-20 00:00:00-04:00,40.629844665527344
2020-05-21 00:00:00-04:00,40.375179290771484
2020-05-22 00:00:00-04:00,40.34431076049805
2020-05-26 00:00:00-04:00,39.696083068847656
2020-05-27 00:00:00-04:00,40.691566467285156
2020-05-28 00:00:00-04:00,39.85043716430664
2020-05-29 00:00:00-04:00,39.333377838134766
2020-06-01 00:00:00-04:00,39.98160934448242
2020-06-02 00:00:00-04:00,42.29669189453125
2020-06-03 00:00:00-04:00,42.728843688964844
2020-06-04 00:00:00-04:00,42.55906677246094
2020-06-05 00:00:00-04:00,45.76934051513672
2020-06-08 00:00:00-04:00,47.930084228515625
2020-06-09 00:00:00-04:00,45.89280700683594
2020-06-10 00:00:00-04:00,42.92949676513672
2020-06-11 00:00:00-04:00,39.4722900390625
2020-06-12 00:00:00-04:00,40.56809616088867
2020-06-15 00:00:00-04:00,40.29029083251953
2020-06-16 00:00:00-04:00,42.134647369384766
2020-06-17 00:00:00-04:00,40.4986457824707
2020-06-18 00:00:00-04:00,40.84590530395508
2020-06-19 00:00:00-04:00,40.359737396240234
2020-06-22 00:00:00-04:00,40.45233917236328
2020-06-23 00:00:00-04:00,40.48321533203125
2020-06-24 00:00:00-04:00,37.774559020996094
2020-06-25 00:00:00-04:00,39.1481819152832
2020-06-26 00:00:00-04:00,37.627933502197266
2020-06-29 00:00:00-04:00,38.31475067138672
2020-06-30 00:00:00-04:00,39.09415817260742
2020-07-01 00:00:00-04:00,38.476806640625
2020-07-02 00:00:00-04:00,38.98612594604492
2020-07-06 00:00:00-04:00,38.9012336730957
2020-07-07 00:00:00-04:00,37.12633514404297
2020-07-08 00:00:00-04:00,36.60929489135742
2020-07-09 00:00:00-04:00,34.217037200927734
2020-07-10 00:00:00-04:00,35.03504180908203
2020-07-13 00:00:00-04:00,34.687774658203125
2020-07-14 00:00:00-04:00,36.485816955566406
2020-07-15 00:00:00-04:00,36.62472915649414
2020-07-16 00:00:00-04:00,37.19644546508789
2020-07-17 00:00:00-04:00,36.683074951171875
2020-07-20 00:00:00-04:00,37.10310363769531
2020-07-21 00:00:00-04:00,39.218833923339844
2020-07-22 00:00:00-04:00,39.03993225097656
2020-07-23 00:00:00-04:00,37.997615814208984
2020-07-24 00:00:00-04:00,38.14542007446289
2020-07-27 00:00:00-04:00,37.77204513549805
2020-07-28 00:00:00-04:00,36.76862335205078
2020-07-29 00:00:00-04:00,37.725379943847656
2020-07-30 00:00:00-04:00,36.23192596435547
2020-07-31 00:00:00-04:00,36.44194030761719
2020-08-03 00:00:00-04:00,36.06856155395508
2020-08-04 00:00:00-04:00,37.69425964355469
2020-08-05 00:00:00-04:00,39.47552490234375
2020-08-06 00:00:00-04:00,39.584415435791016
2020-08-07 00:00:00-04:00,37.96650314331055
2020-08-10 00:00:00-04:00,39.24995422363281
2020-08-11 00:00:00-04:00,38.44099807739258
2020-08-12 00:00:00-04:00,38.18430709838867
2020-08-13 00:00:00-04:00,36.88530731201172
2020-08-14 00:00:00-04:00,37.313114166259766
2020-08-17 00:00:00-04:00,36.200809478759766
2020-08-18 00:00:00-04:00,36.05301284790039
2020-08-19 00:00:00-04:00,35.4774055480957
2020-08-20 00:00:00-04:00,34.30287170410156
2020-08-21 00:00:00-04:00,33.7505989074707
2020-08-24 00:00:00-04:00,34.48176956176758
2020-08-25 00:00:00-04:00,34.520668029785156
2020-08-26 00:00:00-04:00,33.64948272705078
2020-08-27 00:00:00-04:00,34.96404266357422
2020-08-28 00:00:00-04:00,35.944114685058594
2020-08-31 00:00:00-04:00,35.267398834228516
2020-09-01 00:00:00-04:00,35.1662712097168
2020-09-02 00:00:00-04:00,33.99174118041992
2020-09-03 00:00:00-04:00,33.54835510253906
2020-09-04 00:00:00-04:00,33.5561408996582
2020-09-08 00:00:00-04:00,31.759319305419922
2020-09-09 00:00:00-04:00,32.56050491333008
2020-09-10 00:00:00-04:00,29.558025360107422
2020-09-11 00:00:00-04:00,30.374765396118164
2020-09-14 00:00:00-04:00,30.468107223510742
2020-09-15 00:00:00-04:00,30.016958236694336
2020-09-16 00:00:00-04:00,31.782657623291016
2020-09-17 00:00:00-04:00,32.039344787597656
2020-09-18 00:00:00-04:00,31.665969848632812
2020-09-21 00:00:00-04:00,30.188077926635742
2020-09-22 00:00:00-04:00,29.908063888549805
2020-09-23 00:00:00-04:00,28.297929763793945
2020-09-24 00:00:00-04:00,28.50794219970703
2020-09-25 00:00:00-04:00,29.130212783813477
2020-09-28 00:00:00-04:00,29.122432708740234
2020-09-29 00:00:00-04:00,28.150135040283203
2020-09-30 00:00:00-04:00,27.95566749572754
2020-10-01 00:00:00-04:00,27.115596771240234
2020-10-02 00:00:00-04:00,27.076709747314453
2020-10-05 00:00:00-04:00,28.360151290893555
2020-10-06 00:00:00-04:00,27.994558334350586
2020-10-07 00:00:00-04:00,28.554601669311523
2020-10-08 00:00:00-04:00,29.301340103149414
2020-10-09 00:00:00-04:00,29.215778350830078
2020-10-12 00:00:00-04:00,29.721372604370117
2020-10-13 00:00:00-04:00,30.05583953857422
2020-10-14 00:00:00-04:00,29.262453079223633
2020-10-15 00:00:00-04:00,29.918479919433594
2020-10-16 00:00:00-04:00,29.399944305419922
2020-10-19 00:00:00-04:00,28.433565139770508
2020-10-20 00:00:00-04:00,28.504262924194336
2020-10-21 00:00:00-04:00,27.5928897857666
2020-10-22 00:00:00-04:00,29.01496124267578
2020-10-23 00:00:00-04:00,29.47064971923828
2020-10-26 00:00:00-04:00,27.4436092376709
2020-10-27 00:00:00-04:00,27.16862678527832
2020-10-28 00:00:00-04:00,25.542274475097656
2020-10-29 00:00:00-04:00,26.689359664916992
2020-10-30 00:00:00-04:00,26.901493072509766
2020-11-02 00:00:00-05:00,27.616464614868164
2020-11-03 00:00:00-05:00,27.514314651489258
2020-11-04 00:00:00-05:00,28.315704345703125
2020-11-05 00:00:00-05:00,27.97000503540039
2020-11-06 00:00:00-05:00,27.16862678527832
2020-11-09 00:00:00-05:00,31.67054557800293
2020-11-10 00:00:00-05:00,33.147605895996094
2020-11-11 00:00:00-05:00,32.927608489990234
2020-11-12 00:00:00-05:00,31.811965942382812
2020-11-13 00:00:00-05:00,33.52473449707031
2020-11-16 00:00:00-05:00,35.63034439086914
2020-11-17 00:00:00-05:00,35.88176345825195
2020-11-18 00:00:00-05:00,35.300357818603516
2020-11-19 00:00:00-05:00,35.716766357421875
2020-11-20 00:00:00-05:00,35.66176223754883
2020-11-23 00:00:00-05:00,39.582275390625
2020-11-24 00:00:00-05:00,42.75640869140625
2020-11-25 00:00:00-05:00,41.64075469970703
2020-11-27 00:00:00-05:00,40.4072380065918
2020-11-30 00:00:00-05:00,36.832420349121094
2020-12-01 00:00:00-05:00,36.55743408203125
2020-12-02 00:00:00-05:00,37.570953369140625
2020-12-03 00:00:00-05:00,37.845947265625
2020-12-04 00:00:00-05:00,41.64075469970703
2020-12-07 00:00:00-05:00,40.51723098754883
2020-12-08 00:00:00-05:00,40.972930908203125
2020-12-09 00:00:00-05:00,41.60932159423828
2020-12-10 00:00:00-05:00,42.96067810058594
2020-12-11 00:00:00-05:00,42.11214065551758
2020-12-14 00:00:00-05:00,40.91792678833008
2020-12-15 00:00:00-05:00,41.76645278930664
2020-12-16 00:00:00-05:00,41.405052185058594
2020-12-17 00:00:00-05:00,40.972930908203125
2020-12-18 00:00:00-05:00,40.67435836791992
2020-12-21 00:00:00-05:00,39.34657287597656
2020-12-22 00:00:00-05:00,38.38019943237305
2020-12-23 00:00:00-05:00,39.34657287597656
2020-12-24 00:00:00-05:00,38.96945571899414
2020-12-28 00:00:00-05:00,38.450904846191406
2020-12-29 00:00:00-05:00,38.238773345947266
2020-12-30 00:00:00-05:00,39.72372055053711
2020-12-31 00:00:00-05:00,39.18158721923828
2021-01-04 00:00:00-05:00,39.17372131347656
2021-01-05 00:00:00-05:00,42.36356735229492
2021-01-06 00:00:00-05:00,43.25923538208008
2021-01-07 00:00:00-05:00,46.05624008178711
2021-01-08 00:00:00-05:00,46.252655029296875
2021-01-11 00:00:00-05:00,46.83406448364258
2021-01-12 00:00:00-05:00,49.05751419067383
2021-01-13 00:00:00-05:00,47.509742736816406
2021-01-14 00:00:00-05:00,49.20553207397461
2021-01-15 00:00:00-05:00,46.79426574707031
2021-01-19 00:00:00-05:00,47.81410598754883
2021-01-20 00:00:00-05:00,47.592742919921875
2021-01-21 00:00:00-05:00,43.505470275878906
2021-01-22 00:00:00-05:00,43.371063232421875
2021-01-25 00:00:00-05:00,43.63986587524414
2021-01-26 00:00:00-05:00,42.28797912597656
2021-01-27 00:00:00-05:00,43.489654541015625
2021-01-28 00:00:00-05:00,42.469810485839844
2021-01-29 00:00:00-05:00,40.28781509399414
2021-02-01 00:00:00-05:00,40.580326080322266
2021-02-02 00:00:00-05:00,40.52499008178711
2021-02-03 00:00:00-05:00,44.17744827270508
2021-02-04 00:00:00-05:00,45.434478759765625
2021-02-05 00:00:00-05:00,44.75457763671875
2021-02-08 00:00:00-05:00,46.96818923950195
2021-02-09 00:00:00-05:00,46.02741241455078
2021-02-10 00:00:00-05:00,47.600650787353516
2021-02-11 00:00:00-05:00,47.150028228759766
2021-02-12 00:00:00-05:00,48.24102020263672
2021-02-16 00:00:00-05:00,49.88542175292969
2021-02-17 00:00:00-05:00,50.2332878112793
2021-02-18 00:00:00-05:00,47.885257720947266
2021-02-19 00:00:00-05:00,49.41897964477539
2021-02-22 00:00:00-05:00,52.25715255737305
2021-02-23 00:00:00-05:00,53.64067459106445
2021-02-24 00:00:00-05:00,57.21407699584961
2021-02-25 00:00:00-05:00,55.806854248046875
2021-02-26 00:00:00-05:00,51.0396614074707
2021-03-01 00:00:00-05:00,51.3717155456543
2021-03-02 00:00:00-05:00,50.968509674072266
2021-03-03 00:00:00-05:00,52.960758209228516
2021-03-04 00:00:00-05:00,56.470909118652344
2021-03-05 00:00:00-05:00,58.96125793457031
2021-03-08 00:00:00-05:00,58.969154357910156
2021-03-09 00:00:00-05:00,58.19438171386719
2021-03-10 00:00:00-05:00,59.38025665283203
2021-03-11 00:00:00-05:00,59.538368225097656
2021-03-12 00:00:00-05:00,59.29329299926758
2021-03-15 00:00:00-04:00,58.787315368652344
2021-03-16 00:00:00-04:00,55.85429382324219
2021-03-17 00:00:00-04:00,57.86234664916992
2021-03-18 00:00:00-04:00,54.47077560424805
2021-03-19 00:00:00-04:00,55.403648376464844
2021-03-22 00:00:00-04:00,53.94108200073242
2021-03-23 00:00:00-04:00,55.06371307373047
2021-03-24 00:00:00-04:00,57.34846496582031
2021-03-25 00:00:00-04:00,57.74375915527344
2021-03-26 00:00:00-04:00,59.198402404785156
2021-03-29 00:00:00-04:00,58.21810531616211
2021-03-30 00:00:00-04:00,57.917694091796875
2021-03-31 00:00:00-04:00,57.3405647277832
2021-04-01 00:00:00-04:00,59.56208801269531
2021-04-05 00:00:00-04:00,56.75554656982422
2021-04-06 00:00:00-04:00,57.15873336791992
2021-04-07 00:00:00-04:00,57.949317932128906
2021-04-08 00:00:00-04:00,57.07176971435547
2021-04-09 00:00:00-04:00,56.73972702026367
2021-04-12 00:00:00-04:00,55.419456481933594
2021-04-13 00:00:00-04:00,55.65663528442383
2021-04-14 00:00:00-04:00,58.59757995605469
2021-04-15 00:00:00-04:00,57.900352478027344
2021-04-16 00:00:00-04:00,56.05595016479492
2021-04-19 00:00:00-04:00,56.67604446411133
2021-04-20 00:00:00-04:00,54.51362609863281
2021-04-21 00:00:00-04:00,54.82368469238281
2021-04-22 00:00:00-04:00,54.3387336730957
2021-04-23 00:00:00-04:00,54.9031867980957
2021-04-26 00:00:00-04:00,55.51533889770508
2021-04-27 00:00:00-04:00,56.98611068725586
2021-04-28 00:00:00-04:00,59.60963439941406
2021-04-29 00:00:00-04:00,60.364871978759766
2021-04-30 00:00:00-04:00,58.5443115234375
2021-05-03 00:00:00-04:00,60.39670181274414
2021-05-04 00:00:00-04:00,59.63346862792969
2021-05-05 00:00:00-04:00,60.9849967956543
2021-05-06 00:00:00-04:00,61.19963836669922
2021-05-07 00:00:00-04:00,66.06509399414062
2021-05-10 00:00:00-04:00,67.21783447265625
2021-05-11 00:00:00-04:00,65.30186462402344
2021-05-12 00:00:00-04:00,64.68177032470703
2021-05-13 00:00:00-04:00,63.26665115356445
2021-05-14 00:00:00-04:00,65.66759490966797
2021-05-17 00:00:00-04:00,67.65510559082031
2021-05-18 00:00:00-04:00,65.96174621582031
2021-05-19 00:00:00-04:00,64.02987670898438
2021-05-20 00:00:00-04:00,64.01395416259766
2021-05-21 00:00:00-04:00,63.656211853027344
2021-05-24 00:00:00-04:00,63.71187973022461
2021-05-25 00:00:00-04:00,62.55112838745117
2021-05-26 00:00:00-04:00,63.28254699707031
2021-05-27 00:00:00-04:00,63.862918853759766
2021-05-28 00:00:00-04:00,63.870849609375
2021-06-01 00:00:00-04:00,67.24964904785156
2021-06-02 00:00:00-04:00,67.79022979736328
2021-06-03 00:00:00-04:00,69.01455688476562
2021-06-04 00:00:00-04:00,69.53131103515625
2021-06-07 00:00:00-04:00,69.18943786621094
2021-06-08 00:00:00-04:00,69.47566986083984
2021-06-09 00:00:00-04:00,68.21955108642578
2021-06-10 00:00:00-04:00,68.5057601928711
2021-06-11 00:00:00-04:00,67.92540740966797
2021-06-14 00:00:00-04:00,67.46429443359375
2021-06-15 00:00:00-04:00,68.05259704589844
2021-06-16 00:00:00-04:00,67.34503936767578
2021-06-17 00:00:00-04:00,64.73744201660156
2021-06-18 00:00:00-04:00,63.05199432373047
2021-06-21 00:00:00-04:00,67.56766510009766
2021-06-22 00:00:00-04:00,67.53584289550781
2021-06-23 00:00:00-04:00,68.13211822509766
2021-06-24 00:00:00-04:00,68.44214630126953
2021-06-25 00:00:00-04:00,69.682373046875
2021-06-28 00:00:00-04:00,65.96174621582031
2021-06-29 00:00:00-04:00,65.43701934814453
2021-06-30 00:00:00-04:00,66.33539581298828
2021-07-01 00:00:00-04:00,68.36266326904297
2021-07-02 00:00:00-04:00,68.18775177001953
2021-07-06 00:00:00-04:00,66.55799102783203
2021-07-07 00:00:00-04:00,64.46708679199219
2021-07-08 00:00:00-04:00,63.51310348510742
2021-07-09 00:00:00-04:00,65.65961456298828
2021-07-12 00:00:00-04:00,66.22407531738281
2021-07-13 00:00:00-04:00,65.77094268798828
2021-07-14 00:00:00-04:00,63.33026885986328
2021-07-15 00:00:00-04:00,61.66539764404297
2021-07-16 00:00:00-04:00,59.8200569152832
2021-07-19 00:00:00-04:00,56.930625915527344
2021-07-20 00:00:00-04:00,57.869476318359375
2021-07-21 00:00:00-04:00,60.04667282104492
2021-07-22 00:00:00-04:00,59.65008544921875
2021-07-23 00:00:00-04:00,58.686946868896484
2021-07-26 00:00:00-04:00,60.03049087524414
2021-07-27 00:00:00-04:00,58.86499786376953
2021-07-28 00:00:00-04:00,59.32634353637695
2021-07-29 00:00:00-04:00,59.658180236816406
2021-07-30 00:00:00-04:00,58.970218658447266
2021-08-02 00:00:00-04:00,57.96659469604492
2021-08-03 00:00:00-04:00,59.63390350341797
2021-08-04 00:00:00-04:00,57.254371643066406
2021-08-05 00:00:00-04:00,57.254371643066406
2021-08-06 00:00:00-04:00,57.40812683105469
2021-08-09 00:00:00-04:00,56.15362548828125
2021-08-10 00:00:00-04:00,55.62754821777344
2021-08-11 00:00:00-04:00,56.2183837890625
2021-08-12 00:00:00-04:00,56.485469818115234
2021-08-13 00:00:00-04:00,55.03670883178711
2021-08-16 00:00:00-04:00,53.35322189331055
2021-08-17 00:00:00-04:00,53.39369583129883
2021-08-18 00:00:00-04:00,52.89999008178711
2021-08-19 00:00:00-04:00,52.009700775146484
2021-08-20 00:00:00-04:00,52.179649353027344
2021-08-23 00:00:00-04:00,54.74534225463867
2021-08-24 00:00:00-04:00,55.400917053222656
2021-08-25 00:00:00-04:00,55.62754821777344
2021-08-26 00:00:00-04:00,54.57537078857422
2021-08-27 00:00:00-04:00,56.35597610473633
2021-08-30 00:00:00-04:00,54.54299545288086
2021-08-31 00:00:00-04:00,54.6482048034668
2021-09-01 00:00:00-04:00,53.70935821533203
2021-09-02 00:00:00-04:00,55.32808303833008
2021-09-03 00:00:00-04:00,55.02862548828125
2021-09-07 00:00:00-04:00,54.76962661743164
2021-09-08 00:00:00-04:00,54.3730354309082
2021-09-09 00:00:00-04:00,54.5106201171875
2021-09-10 00:00:00-04:00,54.34065628051758
2021-09-13 00:00:00-04:00,56.728267669677734
2021-09-14 00:00:00-04:00,56.266944885253906
2021-09-15 00:00:00-04:00,60.953155517578125
2021-09-16 00:00:00-04:00,59.86862564086914
2021-09-17 00:00:00-04:00,60.095237731933594
2021-09-20 00:00:00-04:00,57.893760681152344
2021-09-21 00:00:00-04:00,58.444129943847656
2021-09-22 00:00:00-04:00,60.378509521484375
2021-09-23 00:00:00-04:00,62.215755462646484
2021-09-24 00:00:00-04:00,63.211273193359375
2021-09-27 00:00:00-04:00,66.21402740478516
2021-09-28 00:00:00-04:00,66.14928436279297
2021-09-29 00:00:00-04:00,66.82913208007812
2021-09-30 00:00:00-04:00,64.96760559082031
2021-10-01 00:00:00-04:00,67.91368103027344
2021-10-04 00:00:00-04:00,69.92901611328125
2021-10-05 00:00:00-04:00,70.49555969238281
2021-10-06 00:00:00-04:00,70.06658172607422
2021-10-07 00:00:00-04:00,69.43528747558594
2021-10-08 00:00:00-04:00,73.27165985107422
2021-10-11 00:00:00-04:00,72.97221374511719
2021-10-12 00:00:00-04:00,72.93982696533203
2021-10-13 00:00:00-04:00,73.17454528808594
2021-10-14 00:00:00-04:00,73.64043426513672
2021-10-15 00:00:00-04:00,72.8680191040039
2021-10-18 00:00:00-04:00,72.61595916748047
2021-10-19 00:00:00-04:00,73.30709075927734
2021-10-20 00:00:00-04:00,75.6975326538086
2021-10-21 00:00:00-04:00,73.90875244140625
2021-10-22 00:00:00-04:00,74.80313873291016
2021-10-25 00:00:00-04:00,76.4618148803711
2021-10-26 00:00:00-04:00,77.24237060546875
2021-10-27 00:00:00-04:00,75.64875793457031
2021-10-28 00:00:00-04:00,76.27482604980469
2021-10-29 00:00:00-04:00,75.1771469116211
2021-11-01 00:00:00-04:00,75.990234375
2021-11-02 00:00:00-04:00,75.4698486328125
2021-11-03 00:00:00-04:00,73.94938659667969
2021-11-04 00:00:00-04:00,73.90875244140625
2021-11-05 00:00:00-04:00,77.3399429321289
2021-11-08 00:00:00-05:00,78.86036682128906
2021-11-09 00:00:00-05:00,78.95796966552734
2021-11-10 00:00:00-05:00,76.66506958007812
2021-11-11 00:00:00-05:00,77.17732238769531
2021-11-12 00:00:00-05:00,77.1122817993164
2021-11-15 00:00:00-05:00,75.77883911132812
2021-11-16 00:00:00-05:00,74.72183990478516
2021-11-17 00:00:00-05:00,73.24203491210938
2021-11-18 00:00:00-05:00,72.8680191040039
2021-11-19 00:00:00-05:00,69.66448211669922
2021-11-22 00:00:00-05:00,70.50196075439453
2021-11-23 00:00:00-05:00,74.60799407958984
2021-11-24 00:00:00-05:00,75.6568603515625
2021-11-26 00:00:00-05:00,71.07925415039062
2021-11-29 00:00:00-05:00,71.86795043945312
2021-11-30 00:00:00-05:00,70.73774719238281
2021-12-01 00:00:00-05:00,69.39616394042969
2021-12-02 00:00:00-05:00,70.37997436523438
2021-12-03 00:00:00-05:00,69.91655731201172
2021-12-06 00:00:00-05:00,71.20120239257812
2021-12-07 00:00:00-05:00,73.6323013305664
2021-12-08 00:00:00-05:00,73.24203491210938
2021-12-09 00:00:00-05:00,72.2663345336914
2021-12-10 00:00:00-05:00,72.91679382324219
2021-12-13 00:00:00-05:00,71.5752182006836
2021-12-14 00:00:00-05:00,70.9678955078125
2021-12-15 00:00:00-05:00,70.56018829345703
2021-12-16 00:00:00-05:00,71.70834350585938
2021-12-17 00:00:00-05:00,69.88629150390625
2021-12-20 00:00:00-05:00,69.53685760498047
2021-12-21 00:00:00-05:00,71.84146118164062
2021-12-22 00:00:00-05:00,72.5652847290039
2021-12-23 00:00:00-05:00,72.53199768066406
2021-12-27 00:00:00-05:00,75.52713012695312
2021-12-28 00:00:00-05:00,75.06122589111328
2021-12-29 00:00:00-05:00,74.75337219238281
2021-12-30 00:00:00-05:00,74.19596862792969
2021-12-31 00:00:00-05:00,73.9047622680664
2022-01-03 00:00:00-05:00,75.8432846069336
2022-01-04 00:00:00-05:00,79.32927703857422
2022-01-05 00:00:00-05:00,77.873291015625
2022-01-06 00:00:00-05:00,79.470703125
2022-01-07 00:00:00-05:00,81.66712188720703
2022-01-10 00:00:00-05:00,81.58394622802734
2022-01-11 00:00:00-05:00,85.02832794189453
2022-01-12 00:00:00-05:00,85.50255584716797
2022-01-13 00:00:00-05:00,85.48580169677734
2022-01-14 00:00:00-05:00,88.528076171875
2022-01-18 00:00:00-05:00,88.56161499023438
2022-01-19 00:00:00-05:00,88.10903930664062
2022-01-20 00:00:00-05:00,86.74293518066406
2022-01-21 00:00:00-05:00,84.33760070800781
2022-01-24 00:00:00-05:00,85.74560546875
2022-01-25 00:00:00-05:00,89.6259765625
2022-01-26 00:00:00-05:00,90.12047576904297
2022-01-27 00:00:00-05:00,91.98104858398438
2022-01-28 00:00:00-05:00,91.93914031982422
2022-01-31 00:00:00-05:00,93.43096923828125
2022-02-01 00:00:00-05:00,94.855712890625
2022-02-02 00:00:00-05:00,94.6378173828125
2022-02-03 00:00:00-05:00,93.68238067626953
2022-02-04 00:00:00-05:00,95.29151916503906
2022-02-07 00:00:00-05:00,96.12125396728516
2022-02-08 00:00:00-05:00,93.47285461425781
2022-02-09 00:00:00-05:00,94.96466064453125
2022-02-10 00:00:00-05:00,94.41990661621094
2022-02-11 00:00:00-05:00,97.84773254394531
2022-02-14 00:00:00-05:00,95.04849243164062
2022-02-15 00:00:00-05:00,92.94486999511719
2022-02-16 00:00:00-05:00,93.67398834228516
2022-02-17 00:00:00-05:00,94.36962127685547
2022-02-18 00:00:00-05:00,93.54827117919922
2022-02-22 00:00:00-05:00,91.79666900634766
2022-02-23 00:00:00-05:00,92.46713256835938
2022-02-24 00:00:00-05:00,92.27437591552734
2022-02-25 00:00:00-05:00,89.91094970703125
2022-02-28 00:00:00-05:00,96.31400299072266
2022-03-01 00:00:00-05:00,97.56275939941406
2022-03-02 00:00:00-05:00,97.83934783935547
2022-03-03 00:00:00-05:00,97.46219635009766
2022-03-04 00:00:00-05:00,99.52391815185547
2022-03-07 00:00:00-05:00,100.69725036621094
2022-03-08 00:00:00-05:00,98.7361068725586
2022-03-09 00:00:00-05:00,95.3501968383789
2022-03-10 00:00:00-05:00,100.4709701538086
2022-03-11 00:00:00-05:00,97.7890625
2022-03-14 00:00:00-04:00,97.92430114746094
2022-03-15 00:00:00-04:00,96.21672058105469
2022-03-16 00:00:00-04:00,95.52354431152344
2022-03-17 00:00:00-04:00,99.64034271240234
2022-03-18 00:00:00-04:00,97.8904800415039
2022-03-21 00:00:00-04:00,103.52046203613281
2022-03-22 00:00:00-04:00,102.14254760742188
2022-03-23 00:00:00-04:00,104.44188690185547
2022-03-24 00:00:00-04:00,102.2947006225586
2022-03-25 00:00:00-04:00,105.25341033935547
2022-03-28 00:00:00-04:00,102.16791534423828
2022-03-29 00:00:00-04:00,101.97348022460938
2022-03-30 00:00:00-04:00,102.36236572265625
2022-03-31 00:00:00-04:00,100.7900161743164
2022-04-01 00:00:00-04:00,101.71989440917969
2022-04-04 00:00:00-04:00,102.14254760742188
2022-04-05 00:00:00-04:00,99.60653686523438
2022-04-06 00:00:00-04:00,100.13063049316406
2022-04-07 00:00:00-04:00,101.96504211425781
2022-04-08 00:00:00-04:00,107.2568588256836
2022-04-11 00:00:00-04:00,102.57369232177734
2022-04-12 00:00:00-04:00,105.30412292480469
2022-04-13 00:00:00-04:00,105.08302307128906
2022-04-14 00:00:00-04:00,104.55572509765625
2022-04-18 00:00:00-04:00,104.87889862060547
2022-04-19 00:00:00-04:00,103.55219268798828
2022-04-20 00:00:00-04:00,104.3431167602539
2022-04-21 00:00:00-04:00,101.62163543701172
2022-04-22 00:00:00-04:00,98.7555923461914
2022-04-25 00:00:00-04:00,95.05606842041016
2022-04-26 00:00:00-04:00,94.90299224853516
2022-04-27 00:00:00-04:00,95.94055938720703
2022-04-28 00:00:00-04:00,100.15884399414062
2022-04-29 00:00:00-04:00,99.29988861083984
2022-05-02 00:00:00-04:00,98.91717529296875
2022-05-03 00:00:00-04:00,102.70172119140625
2022-05-04 00:00:00-04:00,106.112060546875
2022-05-05 00:00:00-04:00,104.96395111083984
2022-05-06 00:00:00-04:00,112.4480209350586
2022-05-09 00:00:00-04:00,100.30342102050781
2022-05-10 00:00:00-04:00,101.68116760253906
2022-05-11 00:00:00-04:00,103.1524658203125
2022-05-12 00:00:00-04:00,102.4891128540039
2022-05-13 00:00:00-04:00,105.69535064697266
2022-05-16 00:00:00-04:00,107.46430969238281
2022-05-17 00:00:00-04:00,108.36581420898438
2022-05-18 00:00:00-04:00,104.24956512451172
2022-05-19 00:00:00-04:00,103.50115203857422
2022-05-20 00:00:00-04:00,103.79882049560547
2022-05-23 00:00:00-04:00,108.9186019897461
2022-05-24 00:00:00-04:00,109.92214965820312
2022-05-25 00:00:00-04:00,113.17091369628906
2022-05-26 00:00:00-04:00,113.72371673583984
2022-05-27 00:00:00-04:00,116.38565826416016
2022-05-31 00:00:00-04:00,116.47920227050781
2022-06-01 00:00:00-04:00,119.00505828857422
2022-06-02 00:00:00-04:00,118.58834838867188
2022-06-03 00:00:00-04:00,121.17374420166016
2022-06-06 00:00:00-04:00,120.00861358642578
2022-06-07 00:00:00-04:00,124.10787200927734
2022-06-08 00:00:00-04:00,123.94622039794922
2022-06-09 00:00:00-04:00,121.18225860595703
2022-06-10 00:00:00-04:00,122.46646881103516
2022-06-13 00:00:00-04:00,112.88175201416016
2022-06-14 00:00:00-04:00,113.16625213623047
2022-06-15 00:00:00-04:00,109.89006805419922
2022-06-16 00:00:00-04:00,103.07905578613281
2022-06-17 00:00:00-04:00,96.27667999267578
2022-06-21 00:00:00-04:00,101.43235778808594
2022-06-22 00:00:00-04:00,95.500732421875
2022-06-23 00:00:00-04:00,92.39697265625
2022-06-24 00:00:00-04:00,95.3455581665039
2022-06-27 00:00:00-04:00,98.07857513427734
2022-06-28 00:00:00-04:00,102.00135803222656
2022-06-29 00:00:00-04:00,97.6130142211914
2022-06-30 00:00:00-04:00,95.21621704101562
2022-07-01 00:00:00-04:00,96.23355102539062
2022-07-05 00:00:00-04:00,90.37091827392578
2022-07-06 00:00:00-04:00,86.99989318847656
2022-07-07 00:00:00-04:00,90.58647918701172
2022-07-08 00:00:00-04:00,90.97442626953125
2022-07-11 00:00:00-04:00,89.40530395507812
2022-07-12 00:00:00-04:00,85.77564239501953
2022-07-13 00:00:00-04:00,85.6894302368164
2022-07-14 00:00:00-04:00,82.631591796875
2022-07-15 00:00:00-04:00,84.50797271728516
2022-07-18 00:00:00-04:00,86.46257781982422
2022-07-19 00:00:00-04:00,90.01559448242188
2022-07-20 00:00:00-04:00,91.70957946777344
2022-07-21 00:00:00-04:00,89.9634780883789
2022-07-22 00:00:00-04:00,87.73957061767578
2022-07-25 00:00:00-04:00,91.63139343261719
2022-07-26 00:00:00-04:00,90.12853240966797
2022-07-27 00:00:00-04:00,93.985595703125
2022-07-28 00:00:00-04:00,93.29061889648438
2022-07-29 00:00:00-04:00,96.6177749633789
2022-08-01 00:00:00-04:00,93.45568084716797
2022-08-02 00:00:00-04:00,93.11688995361328
2022-08-03 00:00:00-04:00,90.00691223144531
2022-08-04 00:00:00-04:00,86.71450805664062
2022-08-05 00:00:00-04:00,92.96050262451172
2022-08-08 00:00:00-04:00,93.11688995361328
2022-08-09 00:00:00-04:00,94.0290298461914
2022-08-10 00:00:00-04:00,94.6805648803711
2022-08-11 00:00:00-04:00,98.6331787109375
2022-08-12 00:00:00-04:00,99.45845794677734
2022-08-15 00:00:00-04:00,97.53861999511719
2022-08-16 00:00:00-04:00,97.65154266357422
2022-08-17 00:00:00-04:00,98.76349639892578
2022-08-18 00:00:00-04:00,103.3676528930664
2022-08-19 00:00:00-04:00,103.1591567993164
2022-08-22 00:00:00-04:00,103.28946685791016
2022-08-23 00:00:00-04:00,105.79134368896484
2022-08-24 00:00:00-04:00,107.63299560546875
2022-08-25 00:00:00-04:00,108.77970123291016
2022-08-26 00:00:00-04:00,108.21503448486328
2022-08-29 00:00:00-04:00,109.95246124267578
2022-08-30 00:00:00-04:00,105.86085510253906
2022-08-31 00:00:00-04:00,105.37435913085938
2022-09-01 00:00:00-04:00,103.12440490722656
2022-09-02 00:00:00-04:00,105.56549072265625
2022-09-06 00:00:00-04:00,104.51435089111328
2022-09-07 00:00:00-04:00,101.7952880859375
2022-09-08 00:00:00-04:00,102.77692413330078
2022-09-09 00:00:00-04:00,107.16390228271484
2022-09-12 00:00:00-04:00,109.8134765625
2022-09-13 00:00:00-04:00,106.77300262451172
2022-09-14 00:00:00-04:00,111.45160675048828
2022-09-15 00:00:00-04:00,107.78433227539062
2022-09-16 00:00:00-04:00,106.80816650390625
2022-09-19 00:00:00-04:00,105.9111328125
2022-09-20 00:00:00-04:00,105.20759582519531
2022-09-21 00:00:00-04:00,103.98514556884766
2022-09-22 00:00:00-04:00,104.08189392089844
2022-09-23 00:00:00-04:00,95.96464538574219
2022-09-26 00:00:00-04:00,92.49964904785156
2022-09-27 00:00:00-04:00,92.73710632324219
2022-09-28 00:00:00-04:00,98.26001739501953
2022-09-29 00:00:00-04:00,99.35050964355469
2022-09-30 00:00:00-04:00,98.26001739501953
2022-10-03 00:00:00-04:00,105.47142028808594
2022-10-04 00:00:00-04:00,110.0796890258789
2022-10-05 00:00:00-04:00,110.8799819946289
2022-10-06 00:00:00-04:00,112.15516662597656
2022-10-07 00:00:00-04:00,112.08480834960938
2022-10-10 00:00:00-04:00,108.78691101074219
2022-10-11 00:00:00-04:00,107.907470703125
2022-10-12 00:00:00-04:00,108.5758285522461
2022-10-13 00:00:00-04:00,111.98806762695312
2022-10-14 00:00:00-04:00,106.6624755859375
2022-10-17 00:00:00-04:00,106.95439910888672
2022-10-18 00:00:00-04:00,109.68798828125
2022-10-19 00:00:00-04:00,115.0666732788086
2022-10-20 00:00:00-04:00,116.41133117675781
2022-10-21 00:00:00-04:00,119.4280014038086
2022-10-24 00:00:00-04:00,119.1272201538086
2022-10-25 00:00:00-04:00,116.77404022216797
2022-10-26 00:00:00-04:00,118.80875396728516
2022-10-27 00:00:00-04:00,118.87065887451172
2022-10-28 00:00:00-04:00,118.26911926269531
2022-10-31 00:00:00-04:00,120.77266693115234
2022-11-01 00:00:00-04:00,120.58688354492188
2022-11-02 00:00:00-04:00,119.94994354248047
2022-11-03 00:00:00-04:00,122.41812133789062
2022-11-04 00:00:00-04:00,125.82402801513672
2022-11-07 00:00:00-05:00,129.1060791015625
2022-11-08 00:00:00-05:00,131.1584930419922
2022-11-09 00:00:00-05:00,123.51509094238281
2022-11-10 00:00:00-05:00,125.8947982788086
2022-11-11 00:00:00-05:00,130.14114379882812
2022-11-14 00:00:00-05:00,129.31838989257812
2022-11-15 00:00:00-05:00,130.3092498779297
2022-11-16 00:00:00-05:00,126.90328979492188
2022-11-17 00:00:00-05:00,127.8233413696289
2022-11-18 00:00:00-05:00,124.75362396240234
2022-11-21 00:00:00-05:00,123.7273941040039
2022-11-22 00:00:00-05:00,127.67295837402344
2022-11-23 00:00:00-05:00,126.19557189941406
2022-11-25 00:00:00-05:00,126.1867446899414
2022-11-28 00:00:00-05:00,120.8876724243164
2022-11-29 00:00:00-05:00,124.99246215820312
2022-11-30 00:00:00-05:00,125.55863952636719
2022-12-01 00:00:00-05:00,124.3289566040039
2022-12-02 00:00:00-05:00,122.9400634765625
2022-12-05 00:00:00-05:00,118.66719055175781
2022-12-06 00:00:00-05:00,113.0496597290039
2022-12-07 00:00:00-05:00,111.607666015625
2022-12-08 00:00:00-05:00,110.20108032226562
2022-12-09 00:00:00-05:00,107.63558197021484
2022-12-12 00:00:00-05:00,109.74989318847656
2022-12-13 00:00:00-05:00,112.75772094726562
2022-12-14 00:00:00-05:00,112.73087310791016
2022-12-15 00:00:00-05:00,113.35749816894531
2022-12-16 00:00:00-05:00,112.58763122558594
2022-12-19 00:00:00-05:00,112.37279510498047
2022-12-20 00:00:00-05:00,113.232177734375
2022-12-21 00:00:00-05:00,116.38323211669922
2022-12-22 00:00:00-05:00,113.06209564208984
2022-12-23 00:00:00-05:00,116.9203109741211
2022-12-27 00:00:00-05:00,118.23625946044922
2022-12-28 00:00:00-05:00,114.04680633544922
2022-12-29 00:00:00-05:00,115.14788818359375
2022-12-30 00:00:00-05:00,115.9446029663086
2023-01-03 00:00:00-05:00,111.40599822998047
2023-01-04 00:00:00-05:00,111.32540893554688
2023-01-05 00:00:00-05:00,111.34333038330078
2023-01-06 00:00:00-05:00,114.10945892333984
2023-01-09 00:00:00-05:00,114.36011505126953
2023-01-10 00:00:00-05:00,114.23479461669922
2023-01-11 00:00:00-05:00,113.55442810058594
2023-01-12 00:00:00-05:00,116.77711486816406
2023-01-13 00:00:00-05:00,116.62847900390625
2023-01-17 00:00:00-05:00,117.16899871826172
2023-01-18 00:00:00-05:00,116.02487182617188
2023-01-19 00:00:00-05:00,118.2770767211914
2023-01-20 00:00:00-05:00,119.59237670898438
2023-01-23 00:00:00-05:00,120.88065338134766
2023-01-24 00:00:00-05:00,119.60138702392578
2023-01-25 00:00:00-05:00,119.36717224121094
2023-01-26 00:00:00-05:00,122.45719909667969
2023-01-27 00:00:00-05:00,121.3130874633789
2023-01-30 00:00:00-05:00,119.00682067871094
2023-01-31 00:00:00-05:00,119.14192199707031
2023-02-01 00:00:00-05:00,114.67356872558594
2023-02-02 00:00:00-05:00,112.38530731201172
2023-02-03 00:00:00-05:00,112.2682113647461
2023-02-06 00:00:00-05:00,111.55650329589844
2023-02-07 00:00:00-05:00,115.11497497558594
2023-02-08 00:00:00-05:00,115.8897476196289
2023-02-09 00:00:00-05:00,114.55644989013672
2023-02-10 00:00:00-05:00,120.8446273803711
2023-02-13 00:00:00-05:00,120.06986236572266
2023-02-14 00:00:00-05:00,119.9347152709961
2023-02-15 00:00:00-05:00,115.7906494140625
2023-02-16 00:00:00-05:00,112.73665618896484
2023-02-17 00:00:00-05:00,106.6827163696289
2023-02-21 00:00:00-05:00,107.41243743896484
2023-02-22 00:00:00-05:00,105.91694641113281
2023-02-23 00:00:00-05:00,107.68268585205078
2023-02-24 00:00:00-05:00,102.93502044677734
2023-02-27 00:00:00-05:00,103.37646484375
2023-02-28 00:00:00-05:00,101.81793975830078
2023-03-01 00:00:00-05:00,106.31333923339844
2023-03-02 00:00:00-05:00,108.82681274414062
2023-03-03 00:00:00-05:00,109.70065307617188
2023-03-06 00:00:00-05:00,108.92591094970703
2023-03-07 00:00:00-05:00,106.53857421875
2023-03-08 00:00:00-05:00,106.15119171142578
2023-03-09 00:00:00-05:00,103.6016845703125
2023-03-10 00:00:00-05:00,101.0611801147461
2023-03-13 00:00:00-04:00,98.28646850585938
2023-03-14 00:00:00-04:00,98.37655639648438
2023-03-15 00:00:00-04:00,92.26667022705078
2023-03-16 00:00:00-04:00,94.99430084228516
2023-03-17 00:00:00-04:00,93.42137145996094
2023-03-20 00:00:00-04:00,95.87622833251953
2023-03-21 00:00:00-04:00,98.75841522216797
2023-03-22 00:00:00-04:00,96.13082122802734
2023-03-23 00:00:00-04:00,95.26704406738281
2023-03-24 00:00:00-04:00,95.91261291503906
2023-03-27 00:00:00-04:00,98.54022216796875
2023-03-28 00:00:00-04:00,100.38590240478516
2023-03-29 00:00:00-04:00,102.4498291015625
2023-03-30 00:00:00-04:00,103.23173522949219
2023-03-31 00:00:00-04:00,104.22278594970703
2023-04-03 00:00:00-04:00,110.38722229003906
2023-04-04 00:00:00-04:00,108.7597427368164
2023-04-05 00:00:00-04:00,109.44166564941406
2023-04-06 00:00:00-04:00,108.5324478149414
2023-04-10 00:00:00-04:00,109.44166564941406
2023-04-11 00:00:00-04:00,110.63272094726562
2023-04-12 00:00:00-04:00,111.20551300048828
2023-04-13 00:00:00-04:00,111.02701568603516
2023-04-14 00:00:00-04:00,111.3199462890625
2023-04-17 00:00:00-04:00,110.56016540527344
2023-04-18 00:00:00-04:00,108.93079376220703
2023-04-19 00:00:00-04:00,108.74771881103516
2023-04-20 00:00:00-04:00,108.25340270996094
2023-04-21 00:00:00-04:00,107.3837890625
2023-04-24 00:00:00-04:00,109.09555053710938
2023-04-25 00:00:00-04:00,106.79793548583984
2023-04-26 00:00:00-04:00,105.87342071533203
2023-04-27 00:00:00-04:00,106.03817749023438
2023-04-28 00:00:00-04:00,109.36102294921875
2023-05-01 00:00:00-04:00,108.60124969482422
2023-05-02 00:00:00-04:00,102.16609954833984
2023-05-03 00:00:00-04:00,101.62602233886719
2023-05-04 00:00:00-04:00,101.89147186279297
2023-05-05 00:00:00-04:00,104.50948333740234
2023-05-08 00:00:00-04:00,104.68339538574219
2023-05-09 00:00:00-04:00,104.14331817626953
2023-05-10 00:00:00-04:00,102.6695556640625
2023-05-11 00:00:00-04:00,101.17748260498047
2023-05-12 00:00:00-04:00,101.07678985595703
2023-05-15 00:00:00-04:00,101.91893005371094
2023-05-16 00:00:00-04:00,98.52286529541016
2023-05-17 00:00:00-04:00,101.42463684082031
2023-05-18 00:00:00-04:00,102.5414047241211
2023-05-19 00:00:00-04:00,104.8939437866211
2023-05-22 00:00:00-04:00,103.94194793701172
2023-05-23 00:00:00-04:00,103.85955810546875
2023-05-24 00:00:00-04:00,103.70394134521484
2023-05-25 00:00:00-04:00,101.05848693847656
2023-05-26 00:00:00-04:00,100.80216979980469
2023-05-30 00:00:00-04:00,99.60301971435547
2023-05-31 00:00:00-04:00,98.21163177490234
2023-06-01 00:00:00-04:00,98.99886322021484
2023-06-02 00:00:00-04:00,102.44985961914062
2023-06-05 00:00:00-04:00,102.20271301269531
2023-06-06 00:00:00-04:00,103.2645492553711
2023-06-07 00:00:00-04:00,106.41348266601562
2023-06-08 00:00:00-04:00,106.32194519042969
2023-06-09 00:00:00-04:00,106.41348266601562
2023-06-12 00:00:00-04:00,104.28063201904297
2023-06-13 00:00:00-04:00,103.18216705322266
2023-06-14 00:00:00-04:00,101.30563354492188
2023-06-15 00:00:00-04:00,102.24847412109375
2023-06-16 00:00:00-04:00,103.81379699707031
2023-06-20 00:00:00-04:00,100.99440002441406
2023-06-21 00:00:00-04:00,101.48870849609375
2023-06-22 00:00:00-04:00,99.09040832519531
2023-06-23 00:00:00-04:00,97.78141021728516
2023-06-26 00:00:00-04:00,100.69232177734375
2023-06-27 00:00:00-04:00,99.7586441040039
2023-06-28 00:00:00-04:00,101.78163146972656
2023-06-29 00:00:00-04:00,103.4384765625
2023-06-30 00:00:00-04:00,104.75663757324219
2023-07-03 00:00:00-04:00,104.99462890625
2023-07-05 00:00:00-04:00,104.61932373046875
2023-07-06 00:00:00-04:00,102.75193786621094
2023-07-07 00:00:00-04:00,106.36771392822266
2023-07-10 00:00:00-04:00,105.9740982055664
2023-07-11 00:00:00-04:00,109.48001098632812
2023-07-12 00:00:00-04:00,111.4114761352539
2023-07-13 00:00:00-04:00,112.19872283935547
2023-07-14 00:00:00-04:00,109.60443878173828
2023-07-17 00:00:00-04:00,109.37405395507812
2023-07-18 00:00:00-04:00,113.14334106445312
2023-07-19 00:00:00-04:00,112.8392105102539
2023-07-20 00:00:00-04:00,113.80687713623047
2023-07-21 00:00:00-04:00,114.83905792236328
2023-07-24 00:00:00-04:00,116.25831604003906
2023-07-25 00:00:00-04:00,118.42404174804688
2023-07-26 00:00:00-04:00,119.17975616455078
2023-07-27 00:00:00-04:00,118.66365051269531
2023-07-28 00:00:00-04:00,120.4515151977539
2023-07-31 00:00:00-04:00,122.1380386352539
2023-08-01 00:00:00-04:00,121.41919708251953
2023-08-02 00:00:00-04:00,119.84327697753906
2023-08-03 00:00:00-04:00,121.36390686035156
2023-08-04 00:00:00-04:00,119.62210083007812
2023-08-07 00:00:00-04:00,117.62224578857422
2023-08-08 00:00:00-04:00,118.33187103271484
2023-08-09 00:00:00-04:00,120.55290222167969
2023-08-10 00:00:00-04:00,120.77408599853516
2023-08-11 00:00:00-04:00,121.95372009277344
2023-08-14 00:00:00-04:00,121.17037200927734
2023-08-15 00:00:00-04:00,119.01383972167969
2023-08-16 00:00:00-04:00,118.51619720458984
2023-08-17 00:00:00-04:00,119.55758666992188
2023-08-18 00:00:00-04:00,120.38703155517578
2023-08-21 00:00:00-04:00,120.14740753173828
2023-08-22 00:00:00-04:00,119.10601043701172
2023-08-23 00:00:00-04:00,118.783447265625
2023-08-24 00:00:00-04:00,115.82516479492188
2023-08-25 00:00:00-04:00,117.1153793334961
2023-08-28 00:00:00-04:00,117.42872619628906
2023-08-29 00:00:00-04:00,117.82498931884766
2023-08-30 00:00:00-04:00,117.75127410888672
2023-08-31 00:00:00-04:00,118.53462219238281
2023-09-01 00:00:00-04:00,120.70954895019531
2023-09-05 00:00:00-04:00,122.93061065673828
2023-09-06 00:00:00-04:00,122.68177795410156
2023-09-07 00:00:00-04:00,121.23489379882812
2023-09-08 00:00:00-04:00,122.32235717773438
2023-09-11 00:00:00-04:00,119.96307373046875
2023-09-12 00:00:00-04:00,123.57571411132812
2023-09-13 00:00:00-04:00,122.4882583618164
2023-09-14 00:00:00-04:00,124.10102081298828
2023-09-15 00:00:00-04:00,121.81546020507812
2023-09-18 00:00:00-04:00,121.53900146484375
2023-09-19 00:00:00-04:00,118.88482666015625
2023-09-20 00:00:00-04:00,115.65926361083984
2023-09-21 00:00:00-04:00,112.97746276855469
2023-09-22 00:00:00-04:00,113.00508880615234
2023-09-25 00:00:00-04:00,115.7975082397461
2023-09-26 00:00:00-04:00,116.93106842041016
2023-09-27 00:00:00-04:00,119.63131713867188
2023-09-28 00:00:00-04:00,119.3179702758789
2023-09-29 00:00:00-04:00,116.82048034667969
2023-10-02 00:00:00-04:00,113.96354675292969
2023-10-03 00:00:00-04:00,114.49807739257812
2023-10-04 00:00:00-04:00,110.000732421875
2023-10-05 00:00:00-04:00,109.17130279541016
2023-10-06 00:00:00-04:00,111.21720886230469
2023-10-09 00:00:00-04:00,117.26282501220703
2023-10-10 00:00:00-04:00,116.77439880371094
2023-10-11 00:00:00-04:00,117.38264465332031
2023-10-12 00:00:00-04:00,118.84796905517578
2023-10-13 00:00:00-04:00,123.3453140258789
2023-10-16 00:00:00-04:00,124.28653717041016
2023-10-17 00:00:00-04:00,124.5368881225586
2023-10-18 00:00:00-04:00,125.8907470703125
2023-10-19 00:00:00-04:00,126.32658386230469
2023-10-20 00:00:00-04:00,123.54469299316406
2023-10-23 00:00:00-04:00,122.07027435302734
2023-10-24 00:00:00-04:00,120.49386596679688
2023-10-25 00:00:00-04:00,120.29912567138672
2023-10-26 00:00:00-04:00,118.63925170898438
2023-10-27 00:00:00-04:00,116.83100891113281
2023-10-30 00:00:00-04:00,116.33025360107422
2023-10-31 00:00:00-04:00,117.07211303710938
2023-11-01 00:00:00-04:00,115.1896743774414
2023-11-02 00:00:00-04:00,119.29762268066406
2023-11-03 00:00:00-04:00,118.84326171875
2023-11-06 00:00:00-05:00,117.22974395751953
2023-11-07 00:00:00-05:00,113.72453308105469
2023-11-08 00:00:00-05:00,112.39849853515625
2023-11-09 00:00:00-05:00,112.4819564819336
2023-11-10 00:00:00-05:00,113.7801742553711
2023-11-13 00:00:00-05:00,114.11400604248047
2023-11-14 00:00:00-05:00,116.02426147460938
2023-11-15 00:00:00-05:00,114.123291015625
2023-11-16 00:00:00-05:00,111.92557525634766
2023-11-17 00:00:00-05:00,114.98568725585938
2023-11-20 00:00:00-05:00,116.12625885009766
2023-11-21 00:00:00-05:00,115.2175064086914
2023-11-22 00:00:00-05:00,114.21601104736328
2023-11-24 00:00:00-05:00,114.52201843261719
2023-11-27 00:00:00-05:00,114.05836486816406
2023-11-28 00:00:00-05:00,114.65184783935547
2023-11-29 00:00:00-05:00,114.2809066772461
2023-11-30 00:00:00-05:00,114.123291015625
2023-12-01 00:00:00-05:00,114.61473846435547
2023-12-04 00:00:00-05:00,114.05836486816406
2023-12-05 00:00:00-05:00,113.08470916748047
2023-12-06 00:00:00-05:00,111.04463195800781
2023-12-07 00:00:00-05:00,109.74641418457031
2023-12-08 00:00:00-05:00,110.31205749511719
2023-12-11 00:00:00-05:00,110.53460693359375
2023-12-12 00:00:00-05:00,109.11583709716797
2023-12-13 00:00:00-05:00,109.86695861816406
2023-12-14 00:00:00-05:00,113.26683044433594
2023-12-15 00:00:00-05:00,112.80663299560547
2023-12-18 00:00:00-05:00,114.22482299804688
2023-12-19 00:00:00-05:00,115.0794906616211
2023-12-20 00:00:00-05:00,114.0463638305664
2023-12-21 00:00:00-05:00,113.71766662597656
2023-12-22 00:00:00-05:00,114.83529663085938
2023-12-26 00:00:00-05:00,116.74185943603516
2023-12-27 00:00:00-05:00,116.71367645263672
2023-12-28 00:00:00-05:00,113.95245361328125
2023-12-29 00:00:00-05:00,113.5955581665039
2024-01-02 00:00:00-05:00,114.20603942871094
2024-01-03 00:00:00-05:00,117.38052368164062
2024-01-04 00:00:00-05:00,113.66130828857422
2024-01-05 00:00:00-05:00,113.06021118164062
2024-01-08 00:00:00-05:00,110.60892486572266
2024-01-09 00:00:00-05:00,109.01228332519531
2024-01-10 00:00:00-05:00,107.99795532226562
2024-01-11 00:00:00-05:00,107.98857879638672
2024-01-12 00:00:00-05:00,108.9935073852539
2024-01-16 00:00:00-05:00,106.15365600585938
2024-01-17 00:00:00-05:00,104.7242660522461
2024-01-18 00:00:00-05:00,104.21308898925781
2024-01-19 00:00:00-05:00,104.288818359375
2024-01-22 00:00:00-05:00,104.73372650146484
2024-01-23 00:00:00-05:00,104.4781494140625
2024-01-24 00:00:00-05:00,106.10633087158203
2024-01-25 00:00:00-05:00,108.718994140625
2024-01-26 00:00:00-05:00,109.37214660644531
2024-01-29 00:00:00-05:00,108.82311248779297
2024-01-30 00:00:00-05:00,110.54596710205078
2024-01-31 00:00:00-05:00,107.71556854248047
2024-02-01 00:00:00-05:00,106.58910369873047
2024-02-02 00:00:00-05:00,104.93252563476562
2024-02-05 00:00:00-05:00,103.79658508300781
2024-02-06 00:00:00-05:00,105.90753173828125
2024-02-07 00:00:00-05:00,106.51336669921875
2024-02-08 00:00:00-05:00,107.02454376220703
2024-02-09 00:00:00-05:00,105.12184143066406
2024-02-12 00:00:00-05:00,106.82575988769531
2024-02-13 00:00:00-05:00,105.10291290283203
2024-02-14 00:00:00-05:00,105.08397674560547
2024-02-15 00:00:00-05:00,108.1510238647461
2024-02-16 00:00:00-05:00,107.49784088134766
2024-02-20 00:00:00-05:00,107.09080505371094
2024-02-21 00:00:00-05:00,110.14837646484375
2024-02-22 00:00:00-05:00,110.18624114990234
2024-02-23 00:00:00-05:00,105.88860321044922
2024-02-26 00:00:00-05:00,106.06846618652344
2024-02-27 00:00:00-05:00,107.8575668334961
2024-02-28 00:00:00-05:00,108.0752944946289
2024-02-29 00:00:00-05:00,108.34980010986328
2024-03-01 00:00:00-05:00,109.90225982666016
2024-03-04 00:00:00-05:00,109.64667510986328
2024-03-05 00:00:00-05:00,109.99691009521484
2024-03-06 00:00:00-05:00,110.27144622802734
2024-03-07 00:00:00-05:00,111.558837890625
2024-03-08 00:00:00-05:00,112.38240051269531
2024-03-11 00:00:00-04:00,114.37028503417969
2024-03-12 00:00:00-04:00,114.38922882080078
2024-03-13 00:00:00-04:00,116.02687072753906
2024-03-14 00:00:00-04:00,117.18174743652344
2024-03-15 00:00:00-04:00,116.23512268066406
2024-03-18 00:00:00-04:00,116.9734878540039
2024-03-19 00:00:00-04:00,117.98637390136719
2024-03-20 00:00:00-04:00,118.98978424072266
2024-03-21 00:00:00-04:00,119.34950256347656
2024-03-22 00:00:00-04:00,118.1756820678711
2024-03-25 00:00:00-04:00,120.4570541381836
2024-03-26 00:00:00-04:00,119.06551361083984
2024-03-27 00:00:00-04:00,119.6429443359375
2024-03-28 00:00:00-04:00,121.01554107666016
2024-04-01 00:00:00-04:00,122.83304595947266
2024-04-02 00:00:00-04:00,125.1806640625
2024-04-03 00:00:00-04:00,126.63846588134766
2024-04-04 00:00:00-04:00,126.87511444091797
2024-04-05 00:00:00-04:00,128.6831512451172
2024-04-08 00:00:00-04:00,128.2193145751953
2024-04-09 00:00:00-04:00,129.74334716796875
2024-04-10 00:00:00-04:00,130.58583068847656
2024-04-11 00:00:00-04:00,129.942138671875
2024-04-12 00:00:00-04:00,128.06784057617188
2024-04-15 00:00:00-04:00,126.17132568359375
2024-04-16 00:00:00-04:00,126.71455383300781
2024-04-17 00:00:00-04:00,126.18083190917969
2024-04-18 00:00:00-04:00,125.5708999633789
2024-04-19 00:00:00-04:00,126.91466522216797
2024-04-22 00:00:00-04:00,127.61039733886719
2024-04-23 00:00:00-04:00,128.46810913085938
2024-04-24 00:00:00-04:00,129.2305450439453
2024-04-25 00:00:00-04:00,129.00181579589844
2024-04-26 00:00:00-04:00,129.32583618164062
2024-04-29 00:00:00-04:00,129.84999084472656
2024-04-30 00:00:00-04:00,125.92355346679688
2024-05-01 00:00:00-04:00,123.8459243774414
2024-05-02 00:00:00-04:00,125.60904693603516
2024-05-03 00:00:00-04:00,123.91265869140625
2024-05-06 00:00:00-04:00,124.35103607177734
2024-05-07 00:00:00-04:00,124.141357421875
2024-05-08 00:00:00-04:00,123.7315673828125
2024-05-09 00:00:00-04:00,124.4272689819336
2024-05-10 00:00:00-04:00,123.98888397216797
2024-05-13 00:00:00-04:00,123.32176208496094
2024-05-14 00:00:00-04:00,123.35035705566406
2024-05-15 00:00:00-04:00,123.02632904052734
2024-05-16 00:00:00-04:00,121.9112777709961
2024-05-17 00:00:00-04:00,123.83641052246094
2024-05-20 00:00:00-04:00,123.76016998291016
2024-05-21 00:00:00-04:00,122.84524536132812
2024-05-22 00:00:00-04:00,120.1291275024414
2024-05-23 00:00:00-04:00,118.20401000976562
2024-05-24 00:00:00-04:00,117.47969818115234
2024-05-28 00:00:00-04:00,119.93852233886719
2024-05-29 00:00:00-04:00,116.19310760498047
2024-05-30 00:00:00-04:00,116.50761413574219
2024-05-31 00:00:00-04:00,118.69957733154297
2024-06-03 00:00:00-04:00,114.02021789550781
2024-06-04 00:00:00-04:00,114.17269897460938
2024-06-05 00:00:00-04:00,114.65873718261719
2024-06-06 00:00:00-04:00,115.51647186279297
2024-06-07 00:00:00-04:00,114.54438781738281
2024-06-10 00:00:00-04:00,115.87860870361328
2024-06-11 00:00:00-04:00,116.29794311523438
2024-06-12 00:00:00-04:00,115.2496109008789
2024-06-13 00:00:00-04:00,113.50558471679688
2024-06-14 00:00:00-04:00,112.68596649169922
2024-06-17 00:00:00-04:00,113.48651885986328
2024-06-18 00:00:00-04:00,113.88678741455078
2024-06-20 00:00:00-04:00,116.25983428955078
2024-06-21 00:00:00-04:00,116.3170166015625
2024-06-24 00:00:00-04:00,119.41435241699219
2024-06-25 00:00:00-04:00,119.65261840820312
2024-06-26 00:00:00-04:00,118.72817993164062
2024-06-27 00:00:00-04:00,118.69957733154297
2024-06-28 00:00:00-04:00,119.95757293701172
2024-07-01 00:00:00-04:00,120.59610748291016
2024-07-02 00:00:00-04:00,120.70094299316406
2024-07-03 00:00:00-04:00,120.81529998779297
2024-07-05 00:00:00-04:00,119.0712661743164
2024-07-08 00:00:00-04:00,119.72884368896484
2024-07-09 00:00:00-04:00,119.76696014404297
2024-07-10 00:00:00-04:00,120.2911376953125
2024-07-11 00:00:00-04:00,122.1495361328125
2024-07-12 00:00:00-04:00,122.89289855957031
2024-07-15 00:00:00-04:00,126.41909790039062
2024-07-16 00:00:00-04:00,125.3421859741211
2024-07-17 00:00:00-04:00,127.04078674316406
2024-07-18 00:00:00-04:00,126.89684295654297
2024-07-19 00:00:00-04:00,124.03704071044922
2024-07-22 00:00:00-04:00,121.80101013183594
2024-07-23 00:00:00-04:00,119.86248779296875
2024-07-24 00:00:00-04:00,120.0544204711914
2024-07-25 00:00:00-04:00,121.91616821289062
2024-07-26 00:00:00-04:00,122.02173614501953
2024-07-29 00:00:00-04:00,120.13118743896484
2024-07-30 00:00:00-04:00,121.06206512451172
2024-07-31 00:00:00-04:00,121.68585968017578
2024-08-01 00:00:00-04:00,118.14466857910156
2024-08-02 00:00:00-04:00,117.96233367919922
2024-08-05 00:00:00-04:00,118.1542739868164
2024-08-06 00:00:00-04:00,117.33855438232422
2024-08-07 00:00:00-04:00,118.1542739868164
2024-08-08 00:00:00-04:00,121.67625427246094
2024-08-09 00:00:00-04:00,121.4267349243164
2024-08-12 00:00:00-04:00,123.57640075683594
2024-08-13 00:00:00-04:00,121.26359558105469
2024-08-14 00:00:00-04:00,121.43634033203125
2024-08-15 00:00:00-04:00,122.95260620117188
2024-08-16 00:00:00-04:00,122.89501953125
2024-08-19 00:00:00-04:00,123.06777954101562
2024-08-20 00:00:00-04:00,120.1983642578125
2024-08-21 00:00:00-04:00,119.93925476074219
2024-08-22 00:00:00-04:00,120.1695785522461
2024-08-23 00:00:00-04:00,121.78181457519531
2024-08-26 00:00:00-04:00,124.81436157226562
2024-08-27 00:00:00-04:00,123.3748550415039
2024-08-28 00:00:00-04:00,123.52840423583984
2024-08-29 00:00:00-04:00,124.73759460449219
2024-08-30 00:00:00-04:00,123.6243896484375
2024-09-03 00:00:00-04:00,118.6436996459961
2024-09-04 00:00:00-04:00,117.82798767089844
2024-09-05 00:00:00-04:00,116.64759826660156
2024-09-06 00:00:00-04:00,115.4959945678711
2024-09-09 00:00:00-04:00,115.63994598388672
2024-09-10 00:00:00-04:00,114.1716537475586
2024-09-11 00:00:00-04:00,113.14481353759766
2024-09-12 00:00:00-04:00,113.451904296875
2024-09-13 00:00:00-04:00,114.5555191040039
2024-09-16 00:00:00-04:00,116.76275634765625
2024-09-17 00:00:00-04:00,118.22145080566406
2024-09-18 00:00:00-04:00,119.36344909667969
2024-09-19 00:00:00-04:00,120.15037536621094
2024-09-20 00:00:00-04:00,120.9468994140625
2024-09-23 00:00:00-04:00,122.57833862304688
2024-09-24 00:00:00-04:00,122.74149322509766
2024-09-25 00:00:00-04:00,119.53618621826172
2024-09-26 00:00:00-04:00,115.51519012451172
2024-09-27 00:00:00-04:00,117.501708984375
2024-09-30 00:00:00-04:00,117.97193908691406
2024-10-01 00:00:00-04:00,121.83939361572266
2024-10-02 00:00:00-04:00,123.15414428710938
2024-10-03 00:00:00-04:00,125.51490783691406
2024-10-04 00:00:00-04:00,127.7509536743164
2024-10-07 00:00:00-04:00,128.82577514648438
2024-10-08 00:00:00-04:00,125.11185455322266
2024-10-09 00:00:00-04:00,125.67807006835938
2024-10-10 00:00:00-04:00,126.85845184326172
2024-10-11 00:00:00-04:00,127.10797882080078
2024-10-14 00:00:00-04:00,126.16751861572266
2024-10-15 00:00:00-04:00,122.14649200439453
2024-10-16 00:00:00-04:00,122.22325897216797
2024-10-17 00:00:00-04:00,122.79354095458984
2024-10-18 00:00:00-04:00,122.38758850097656
2024-10-21 00:00:00-04:00,121.50799560546875
2024-10-22 00:00:00-04:00,120.88938903808594
2024-10-23 00:00:00-04:00,120.56076049804688
2024-10-24 00:00:00-04:00,120.28045654296875
2024-10-25 00:00:00-04:00,119.05290222167969
2024-10-28 00:00:00-04:00,117.98966979980469
2024-10-29 00:00:00-04:00,116.46248626708984
2024-10-30 00:00:00-04:00,116.4914779663086
2024-10-31 00:00:00-04:00,117.88334655761719
2024-11-01 00:00:00-04:00,116.80078125
2024-11-04 00:00:00-05:00,118.82093048095703
2024-11-05 00:00:00-05:00,118.02833557128906
2024-11-06 00:00:00-05:00,122.94819641113281
2024-11-07 00:00:00-05:00,122.23292541503906
2024-11-08 00:00:00-05:00,129.6368865966797
2024-11-11 00:00:00-05:00,128.65098571777344
2024-11-12 00:00:00-05:00,128.67999267578125
2024-11-13 00:00:00-05:00,129.8592071533203
2024-11-14 00:00:00-05:00,130.67111206054688
2024-11-15 00:00:00-05:00,130.0621795654297
2024-11-18 00:00:00-05:00,131.9759979248047
2024-11-19 00:00:00-05:00,130.66143798828125
2024-11-20 00:00:00-05:00,131.6763458251953
2024-11-21 00:00:00-05:00,130.97076416015625
2024-11-22 00:00:00-05:00,131.7923583984375
2024-11-25 00:00:00-05:00,127.56840515136719
2024-11-26 00:00:00-05:00,128.10968017578125
2024-11-27 00:00:00-05:00,128.6413116455078
2024-11-29 00:00:00-05:00,128.8056182861328
2024-12-02 00:00:00-05:00,126.8531494140625
2024-12-03 00:00:00-05:00,127.39443969726562
2024-12-04 00:00:00-05:00,125.20030975341797
2024-12-05 00:00:00-05:00,125.67394256591797
2024-12-06 00:00:00-05:00,123.53779602050781
2024-12-09 00:00:00-05:00,123.57646179199219
2024-12-10 00:00:00-05:00,122.37791442871094
2024-12-11 00:00:00-05:00,123.2961654663086
2024-12-12 00:00:00-05:00,122.33924865722656
2024-12-13 00:00:00-05:00,122.53255462646484
2024-12-16 00:00:00-05:00,120.45443725585938
2024-12-17 00:00:00-05:00,119.03357696533203
2024-12-18 00:00:00-05:00,115.63123321533203
2024-12-19 00:00:00-05:00,114.26836395263672
2024-12-20 00:00:00-05:00,115.06094360351562
2024-12-23 00:00:00-05:00,115.8438720703125
2024-12-24 00:00:00-05:00,116.7911148071289
2024-12-26 00:00:00-05:00,116.38516235351562
2024-12-27 00:00:00-05:00,116.37549591064453
2024-12-30 00:00:00-05:00,116.54948425292969
2024-12-31 00:00:00-05:00,118.48261260986328
2025-01-02 00:00:00-05:00,120.54141998291016
2025-01-03 00:00:00-05:00,122.33924865722656
2025-01-06 00:00:00-05:00,122.16526794433594
2025-01-07 00:00:00-05:00,123.2961654663086
2025-01-08 00:00:00-05:00,124.16608428955078
2025-01-10 00:00:00-05:00,127.0174789428711
2025-01-13 00:00:00-05:00,129.99452209472656
2025-01-14 00:00:00-05:00,131.2317352294922
2025-01-15 00:00:00-05:00,132.47860717773438
2025-01-16 00:00:00-05:00,133.43553161621094
2025-01-17 00:00:00-05:00,132.9536590576172
2025-01-21 00:00:00-05:00,132.42800903320312
2025-01-22 00:00:00-05:00,130.46163940429688
2025-01-23 00:00:00-05:00,130.42269897460938
2025-01-24 00:00:00-05:00,128.32003784179688
2025-01-27 00:00:00-05:00,128.4563446044922
2025-01-28 00:00:00-05:00,126.79174041748047
2025-01-29 00:00:00-05:00,126.77226257324219
2025-01-30 00:00:00-05:00,126.33422088623047
2025-01-31 00:00:00-05:00,122.45014953613281
2025-02-03 00:00:00-05:00,123.04395294189453
2025-02-04 00:00:00-05:00,124.71827697753906
2025-02-05 00:00:00-05:00,124.30943298339844
2025-02-06 00:00:00-05:00,123.31651306152344
2025-02-07 00:00:00-05:00,123.14130401611328
2025-02-10 00:00:00-05:00,127.09349060058594
2025-02-11 00:00:00-05:00,128.77757263183594
2025-02-12 00:00:00-05:00,125.41915893554688
2025-02-13 00:00:00-05:00,125.59439086914062
2025-02-14 00:00:00-05:00,125.8766860961914
2025-02-18 00:00:00-05:00,127.46341705322266
2025-02-19 00:00:00-05:00,130.95809936523438
2025-02-20 00:00:00-05:00,132.0678253173828
2025-02-21 00:00:00-05:00,129.5465850830078
2025-02-24 00:00:00-05:00,130.0819854736328
2025-02-25 00:00:00-05:00,127.83332061767578
2025-02-26 00:00:00-05:00,126.39260864257812
2025-02-27 00:00:00-05:00,127.14216613769531
2025-02-28 00:00:00-05:00,123.56961822509766
2025-03-03 00:00:00-05:00,117.33954620361328
2025-03-04 00:00:00-05:00,118.86785888671875
2025-03-05 00:00:00-05:00,118.61476135253906
2025-03-06 00:00:00-05:00,118.94573974609375
2025-03-07 00:00:00-05:00,121.93421936035156
2025-03-10 00:00:00-04:00,122.54749298095703
2025-03-11 00:00:00-04:00,121.18466186523438
2025-03-12 00:00:00-04:00,120.97049713134766
2025-03-13 00:00:00-04:00,117.87493896484375
2025-03-14 00:00:00-04:00,120.62979888916016
2025-03-17 00:00:00-04:00,120.298828125
2025-03-18 00:00:00-04:00,119.31564331054688
2025-03-19 00:00:00-04:00,121.62272644042969
2025-03-20 00:00:00-04:00,120.99971008300781
2025-03-21 00:00:00-04:00,121.84660339355469
2025-03-24 00:00:00-04:00,124.86431121826172
2025-03-25 00:00:00-04:00,123.99793243408203
2025-03-26 00:00:00-04:00,125.75012969970703
2025-03-27 00:00:00-04:00,123.36519622802734
2025-03-28 00:00:00-04:00,123.22891235351562
2025-03-31 00:00:00-04:00,124.8351058959961
2025-04-01 00:00:00-04:00,125.86695861816406
2025-04-02 00:00:00-04:00,126.5191650390625
2025-04-03 00:00:00-04:00,116.70679473876953
2025-04-04 00:00:00-04:00,107.61479187011719
2025-04-07 00:00:00-04:00,106.13513946533203
2025-04-08 00:00:00-04:00,102.17321014404297
2025-04-09 00:00:00-04:00,111.02185821533203
2025-04-10 00:00:00-04:00,101.8324966430664
2025-04-11 00:00:00-04:00,105.65815734863281
2025-04-14 00:00:00-04:00,104.78205108642578
2025-04-15 00:00:00-04:00,104.62630462646484
2025-04-16 00:00:00-04:00,106.3306884765625
2025-04-17 00:00:00-04:00,108.55082702636719
2025-04-21 00:00:00-04:00,107.18534851074219
2025-04-22 00:00:00-04:00,109.35636901855469
2025-04-23 00:00:00-04:00,109.6019515991211
2025-04-24 00:00:00-04:00,111.4586181640625
2025-04-25 00:00:00-04:00,111.07549285888672
2025-04-28 00:00:00-04:00,112.12661743164062
2025-04-29 00:00:00-04:00,110.9379653930664
2025-04-30 00:00:00-04:00,108.38383483886719
2025-05-01 00:00:00-04:00,109.71001434326172
2025-05-02 00:00:00-04:00,108.90447998046875
2025-05-05 00:00:00-04:00,106.60575103759766
2025-05-06 00:00:00-04:00,106.80223083496094
2025-05-07 00:00:00-04:00,106.06546020507812
2025-05-08 00:00:00-04:00,107.77476501464844
2025-05-09 00:00:00-04:00,109.15989685058594
2025-05-12 00:00:00-04:00,112.04803466796875
2025-05-13 00:00:00-04:00,114.59234619140625
2025-05-14 00:00:00-04:00,113.55104064941406
2025-05-15 00:00:00-04:00,113.8162841796875
2025-05-16 00:00:00-04:00,113.46263122558594
2025-05-19 00:00:00-04:00,111.93997192382812
2025-05-20 00:00:00-04:00,110.59414672851562
2025-05-21 00:00:00-04:00,109.41529846191406
2025-05-22 00:00:00-04:00,108.8357162475586
2025-05-23 00:00:00-04:00,108.2364730834961
2025-05-27 00:00:00-04:00,109.26795959472656
2025-05-28 00:00:00-04:00,108.501708984375
2025-05-29 00:00:00-04:00,107.94176483154297
2025-05-30 00:00:00-04:00,106.65486907958984
2025-06-02 00:00:00-04:00,109.37600708007812
2025-06-03 00:00:00-04:00,110.82990264892578
2025-06-04 00:00:00-04:00,108.81607055664062
2025-06-05 00:00:00-04:00,109.07147979736328
2025-06-06 00:00:00-04:00,112.0382080078125
2025-06-09 00:00:00-04:00,112.31327056884766
2025-06-10 00:00:00-04:00,115.80064392089844
2025-06-11 00:00:00-04:00,117.8046646118164
2025-06-12 00:00:00-04:00,118.46284484863281
2025-06-13 00:00:00-04:00,123.07011413574219
2025-06-16 00:00:00-04:00,121.00716400146484
2025-06-17 00:00:00-04:00,122.44140625
2025-06-18 00:00:00-04:00,121.5965805053711
2025-06-20 00:00:00-04:00,123.10941314697266
2025-06-23 00:00:00-04:00,119.83815002441406
2025-06-24 00:00:00-04:00,118.55125427246094
2025-06-25 00:00:00-04:00,117.70642852783203
2025-06-26 00:00:00-04:00,118.99331665039062
2025-06-27 00:00:00-04:00,118.66914367675781
2025-06-30 00:00:00-04:00,117.50012969970703
2025-07-01 00:00:00-04:00,119.0522689819336
2025-07-02 00:00:00-04:00,120.71245574951172
2025-07-03 00:00:00-04:00,120.97769165039062
2025-07-07 00:00:00-04:00,117.50012969970703
2025-07-08 00:00:00-04:00,121.76358032226562
2025-07-09 00:00:00-04:00,119.73992156982422
2025-07-10 00:00:00-04:00,119.5827407836914
2025-07-11 00:00:00-04:00,120.86963653564453
2025-07-14 00:00:00-04:00,120.43739318847656
2025-07-15 00:00:00-04:00,117.59837341308594
2025-07-16 00:00:00-04:00,116.70442962646484
2025-07-17 00:00:00-04:00,117.30367279052734
2025-07-18 00:00:00-04:00,116.56080627441406
2025-07-21 00:00:00-04:00,115.38211822509766
2025-07-22 00:00:00-04:00,116.80842590332031
2025-07-23 00:00:00-04:00,117.7493896484375
2025-07-24 00:00:00-04:00,117.91777801513672
2025-07-25 00:00:00-04:00,117.26404571533203
2025-07-28 00:00:00-04:00,120.49304962158203
2025-07-29 00:00:00-04:00,121.9787826538086
2025-07-30 00:00:00-04:00,120.08694458007812
2025-07-31 00:00:00-04:00,118.87854766845703
2025-08-01 00:00:00-04:00,115.49107360839844
2025-08-04 00:00:00-04:00,115.89717864990234
2025-08-05 00:00:00-04:00,116.65985107421875
2025-08-06 00:00:00-04:00,115.48116302490234
2025-08-07 00:00:00-04:00,114.8670654296875
2025-08-08 00:00:00-04:00,115.17411804199219
2025-08-11 00:00:00-04:00,115.72879028320312
2025-08-12 00:00:00-04:00,116.88766479492188
2025-08-13 00:00:00-04:00,118.33377838134766
2025-08-14 00:00:00-04:00,118.6507339477539
2025-08-15 00:00:00-04:00,117.85834503173828
2025-08-18 00:00:00-04:00,116.6103286743164
2025-08-19 00:00:00-04:00,116.2042236328125
2025-08-20 00:00:00-04:00,117.23433685302734
2025-08-21 00:00:00-04:00,117.3829116821289
2025-08-22 00:00:00-04:00,119.95818328857422
2025-08-25 00:00:00-04:00,120.27513885498047
2025-08-26 00:00:00-04:00,120.14637756347656
2025-08-27 00:00:00-04:00,121.71134185791016
2025-08-28 00:00:00-04:00,123.15745544433594
2025-08-29 00:00:00-04:00,123.63289642333984
2025-09-02 00:00:00-04:00,124.90071868896484
2025-09-03 00:00:00-04:00,119.43321990966797
2025-09-04 00:00:00-04:00,120.44351959228516
2025-09-05 00:00:00-04:00,116.80842590332031
2025-09-08 00:00:00-04:00,116.53108978271484
2025-09-09 00:00:00-04:00,116.19432067871094
2025-09-10 00:00:00-04:00,119.11626434326172
2025-09-11 00:00:00-04:00,118.85873413085938
2025-09-12 00:00:00-04:00,117.03623962402344
2025-09-15 00:00:00-04:00,116.42213439941406
2025-09-16 00:00:00-04:00,119.69074249267578
2025-09-17 00:00:00-04:00,118.70025634765625
2025-09-18 00:00:00-04:00,117.19471740722656
2025-09-19 00:00:00-04:00,114.89678192138672
2025-09-22 00:00:00-04:00,114.31239318847656
2025-09-23 00:00:00-04:00,114.56991577148438
2025-09-24 00:00:00-04:00,115.59011840820312
2025-09-25 00:00:00-04:00,116.18441772460938
2025-09-26 00:00:00-04:00,116.19432067871094
2025-09-29 00:00:00-04:00,112.27198028564453
2025-09-30 00:00:00-04:00,111.05368041992188
2025-10-01 00:00:00-04:00,110.21176147460938
2025-10-02 00:00:00-04:00,109.35003662109375
2025-10-03 00:00:00-04:00,109.77594757080078
2025-10-06 00:00:00-04:00,109.3995590209961
2025-10-07 00:00:00-04:00,109.3995590209961
2025-10-08 00:00:00-04:00,109.44908905029297
2025-10-09 00:00:00-04:00,110.85558319091797
2025-10-10 00:00:00-04:00,107.04219818115234
2025-10-13 00:00:00-04:00,108.67650604248047
2025-10-14 00:00:00-04:00,108.08221435546875
2025-10-15 00:00:00-04:00,107.59687042236328
2025-10-16 00:00:00-04:00,106.22999572753906
2025-10-17 00:00:00-04:00,106.22000122070312
2025-10-20 00:00:00-04:00,106.4000015258789
2025-10-21 00:00:00-04:00,106.04000091552734
2025-10-22 00:00:00-04:00,106.20999908447266
2025-10-23 00:00:00-04:00,108.08000183105469
2025-10-24 00:00:00-04:00,106.37999725341797
2025-10-27 00:00:00-04:00,106.77999877929688
2025-10-28 00:00:00-04:00,105.9000015258789
2025-10-29 00:00:00-04:00,106.0
2025-10-30 00:00:00-04:00,105.45999908447266
2025-10-31 00:00:00-04:00,105.83999633789062
2025-11-03 00:00:00-05:00,105.63999938964844
2025-11-04 00:00:00-05:00,105.26000213623047
2025-11-05 00:00:00-05:00,105.19000244140625
2025-11-06 00:00:00-05:00,105.0
2025-11-07 00:00:00-05:00,105.41000366210938
2025-11-10 00:00:00-05:00,106.56999969482422
2025-11-11 00:00:00-05:00,109.33999633789062
2025-11-12 00:00:00-05:00,108.73999786376953
2025-11-13 00:00:00-05:00,109.23999786376953
2025-11-14 00:00:00-05:00,110.4000015258789
2025-11-17 00:00:00-05:00,109.4800033569336
2025-11-18 00:00:00-05:00,109.56999969482422
2025-11-19 00:00:00-05:00,107.08999633789062
2025-11-20 00:00:00-05:00,106.06999969482422
2025-11-21 00:00:00-05:00,106.97000122070312
2025-11-24 00:00:00-05:00,106.58999633789062
2025-11-25 00:00:00-05:00,105.47000122070312
2025-11-26 00:00:00-05:00,106.19999694824219
2025-11-28 00:00:00-05:00,107.8499984741211
2025-12-01 00:00:00-05:00,109.70999908447266
2025-12-02 00:00:00-05:00,109.05999755859375
2025-12-03 00:00:00-05:00,111.51000213623047
2025-12-04 00:00:00-05:00,112.16000366210938
2025-12-05 00:00:00-05:00,112.16999816894531
2025-12-08 00:00:00-05:00,110.62000274658203
2025-12-09 00:00:00-05:00,109.38999938964844
2025-12-10 00:00:00-05:00,111.43000030517578
2025-12-11 00:00:00-05:00,109.51000213623047
2025-12-12 00:00:00-05:00,108.01000213623047
2025-12-15 00:00:00-05:00,105.93000030517578
2025-12-16 00:00:00-05:00,101.77999877929688
2025-12-17 00:00:00-05:00,104.73999786376953
2025-12-18 00:00:00-05:00,102.61000061035156
2025-12-19 00:00:00-05:00,101.93000030517578
2025-12-22 00:00:00-05:00,103.41999816894531
2025-12-23 00:00:00-05:00,103.98999786376953
2025-12-24 00:00:00-05:00,103.87000274658203
2025-12-26 00:00:00-05:00,103.5
2025-12-29 00:00:00-05:00,104.63999938964844
2025-12-30 00:00:00-05:00,105.66000366210938
2025-12-31 00:00:00-05:00,105.01000213623047
2026-01-02 00:00:00-05:00,107.2699966430664
2026-01-05 00:00:00-05:00,106.19999694824219
2026-01-06 00:00:00-05:00,105.0
2026-01-07 00:00:00-05:00,102.55000305175781
2026-01-08 00:00:00-05:00,105.56999969482422
2026-01-09 00:00:00-05:00,104.91999816894531
2026-01-12 00:00:00-05:00,105.44000244140625
2026-01-13 00:00:00-05:00,108.04000091552734
2026-01-14 00:00:00-05:00,110.73999786376953
