date,close
2018-01-02 00:00:00-05:00,101.46859741210938
2018-01-03 00:00:00-05:00,101.63201904296875
2018-01-04 00:00:00-05:00,101.01287841796875
2018-01-05 00:00:00-05:00,102.25972747802734
2018-01-08 00:00:00-05:00,102.08773803710938
2018-01-09 00:00:00-05:00,101.65776824951172
2018-01-10 00:00:00-05:00,100.2733383178711
2018-01-11 00:00:00-05:00,101.09883880615234
2018-01-12 00:00:00-05:00,101.61478424072266
2018-01-16 00:00:00-05:00,100.29914855957031
2018-01-17 00:00:00-05:00,98.45895385742188
2018-01-18 00:00:00-05:00,101.82115936279297
2018-01-19 00:00:00-05:00,101.84700012207031
2018-01-22 00:00:00-05:00,100.4195327758789
2018-01-23 00:00:00-05:00,100.8237075805664
2018-01-24 00:00:00-05:00,102.27692413330078
2018-01-25 00:00:00-05:00,103.36900329589844
2018-01-26 00:00:00-05:00,104.45248413085938
2018-01-29 00:00:00-05:00,102.81867218017578
2018-01-30 00:00:00-05:00,101.76958465576172
2018-01-31 00:00:00-05:00,102.09632873535156
2018-02-01 00:00:00-05:00,101.1418685913086
2018-02-02 00:00:00-05:00,99.41341400146484
2018-02-05 00:00:00-05:00,96.29199981689453
2018-02-06 00:00:00-05:00,97.99462127685547
2018-02-07 00:00:00-05:00,98.14078521728516
2018-02-08 00:00:00-05:00,94.84735107421875
2018-02-09 00:00:00-05:00,96.62736511230469
2018-02-12 00:00:00-05:00,98.01180267333984
2018-02-13 00:00:00-05:00,98.51056671142578
2018-02-14 00:00:00-05:00,100.02397155761719
2018-02-15 00:00:00-05:00,100.30023956298828
2018-02-16 00:00:00-05:00,100.27433776855469
2018-02-20 00:00:00-05:00,99.61823272705078
2018-02-21 00:00:00-05:00,99.80815124511719
2018-02-22 00:00:00-05:00,100.01535034179688
2018-02-23 00:00:00-05:00,101.39653778076172
2018-02-26 00:00:00-05:00,101.45694732666016
2018-02-27 00:00:00-05:00,99.54058074951172
2018-02-28 00:00:00-05:00,97.06306457519531
2018-03-01 00:00:00-05:00,95.9149398803711
2018-03-02 00:00:00-05:00,95.17255401611328
2018-03-05 00:00:00-05:00,97.33930969238281
2018-03-06 00:00:00-05:00,99.33338165283203
2018-03-07 00:00:00-05:00,99.29021453857422
2018-03-08 00:00:00-05:00,99.61823272705078
2018-03-09 00:00:00-05:00,101.560546875
2018-03-12 00:00:00-04:00,100.53327941894531
2018-03-13 00:00:00-04:00,100.1966552734375
2018-03-14 00:00:00-04:00,99.30748748779297
2018-03-15 00:00:00-04:00,98.65142822265625
2018-03-16 00:00:00-04:00,99.21253967285156
2018-03-19 00:00:00-04:00,97.73638916015625
2018-03-20 00:00:00-04:00,98.28024291992188
2018-03-21 00:00:00-04:00,98.36653900146484
2018-03-22 00:00:00-04:00,96.08757781982422
2018-03-23 00:00:00-04:00,94.50784301757812
2018-03-26 00:00:00-04:00,96.62278747558594
2018-03-27 00:00:00-04:00,96.60553741455078
2018-03-28 00:00:00-04:00,94.93083953857422
2018-03-29 00:00:00-04:00,96.33792114257812
2018-04-02 00:00:00-04:00,93.4546890258789
2018-04-03 00:00:00-04:00,95.11212158203125
2018-04-04 00:00:00-04:00,95.63871002197266
2018-04-05 00:00:00-04:00,96.39835357666016
2018-04-06 00:00:00-04:00,94.43018341064453
2018-04-09 00:00:00-04:00,94.62007904052734
2018-04-10 00:00:00-04:00,95.26750183105469
2018-04-11 00:00:00-04:00,94.33524322509766
2018-04-12 00:00:00-04:00,94.99125671386719
2018-04-13 00:00:00-04:00,94.95674896240234
2018-04-16 00:00:00-04:00,96.48469543457031
2018-04-17 00:00:00-04:00,97.61553192138672
2018-04-18 00:00:00-04:00,97.71047973632812
2018-04-19 00:00:00-04:00,94.64595031738281
2018-04-20 00:00:00-04:00,93.98129272460938
2018-04-23 00:00:00-04:00,93.98992156982422
2018-04-24 00:00:00-04:00,91.30522918701172
2018-04-25 00:00:00-04:00,93.12664794921875
2018-04-26 00:00:00-04:00,92.97128295898438
2018-04-27 00:00:00-04:00,93.20435333251953
2018-04-30 00:00:00-04:00,91.40017700195312
2018-05-01 00:00:00-04:00,92.29793548583984
2018-05-02 00:00:00-04:00,91.25343322753906
2018-05-03 00:00:00-04:00,90.60599517822266
2018-05-04 00:00:00-04:00,91.84908294677734
2018-05-07 00:00:00-04:00,91.68504333496094
2018-05-08 00:00:00-04:00,92.09077453613281
2018-05-09 00:00:00-04:00,92.80162811279297
2018-05-10 00:00:00-04:00,91.98676300048828
2018-05-11 00:00:00-04:00,87.062744140625
2018-05-14 00:00:00-04:00,89.2646713256836
2018-05-15 00:00:00-04:00,89.31668090820312
2018-05-16 00:00:00-04:00,89.72415161132812
2018-05-17 00:00:00-04:00,90.51301574707031
2018-05-18 00:00:00-04:00,90.98114776611328
2018-05-21 00:00:00-04:00,91.05049896240234
2018-05-22 00:00:00-04:00,89.15196990966797
2018-05-23 00:00:00-04:00,89.03926086425781
2018-05-24 00:00:00-04:00,88.85725402832031
2018-05-25 00:00:00-04:00,89.63744354248047
2018-05-29 00:00:00-04:00,87.59156799316406
2018-05-30 00:00:00-04:00,87.9296646118164
2018-05-31 00:00:00-04:00,87.48753356933594
2018-06-01 00:00:00-04:00,88.43245697021484
2018-06-04 00:00:00-04:00,88.79655456542969
2018-06-05 00:00:00-04:00,88.85725402832031
2018-06-06 00:00:00-04:00,90.0969009399414
2018-06-07 00:00:00-04:00,89.36872100830078
2018-06-08 00:00:00-04:00,90.28762817382812
2018-06-11 00:00:00-04:00,90.0969009399414
2018-06-12 00:00:00-04:00,89.7501449584961
2018-06-13 00:00:00-04:00,89.55075073242188
2018-06-14 00:00:00-04:00,90.12289428710938
2018-06-15 00:00:00-04:00,91.35391998291016
2018-06-18 00:00:00-04:00,91.02450561523438
2018-06-19 00:00:00-04:00,90.27027893066406
2018-06-20 00:00:00-04:00,91.1458511352539
2018-06-21 00:00:00-04:00,90.41764831542969
2018-06-22 00:00:00-04:00,91.38859558105469
2018-06-25 00:00:00-04:00,91.11983489990234
2018-06-26 00:00:00-04:00,91.7440185546875
2018-06-27 00:00:00-04:00,91.11983489990234
2018-06-28 00:00:00-04:00,91.64863586425781
2018-06-29 00:00:00-04:00,89.92353057861328
2018-07-02 00:00:00-04:00,89.01326751708984
2018-07-03 00:00:00-04:00,88.42378234863281
2018-07-05 00:00:00-04:00,89.12596893310547
2018-07-06 00:00:00-04:00,89.29068756103516
2018-07-09 00:00:00-04:00,90.0882339477539
2018-07-10 00:00:00-04:00,90.85111236572266
2018-07-11 00:00:00-04:00,89.94087982177734
2018-07-12 00:00:00-04:00,90.01887512207031
2018-07-13 00:00:00-04:00,90.14892578125
2018-07-16 00:00:00-04:00,88.74453735351562
2018-07-17 00:00:00-04:00,91.3799057006836
2018-07-18 00:00:00-04:00,92.54155731201172
2018-07-19 00:00:00-04:00,92.2294692993164
2018-07-20 00:00:00-04:00,91.02450561523438
2018-07-23 00:00:00-04:00,90.51301574707031
2018-07-24 00:00:00-04:00,91.93470764160156
2018-07-25 00:00:00-04:00,94.73481750488281
2018-07-26 00:00:00-04:00,95.93113708496094
2018-07-27 00:00:00-04:00,94.8735122680664
2018-07-30 00:00:00-04:00,95.13357543945312
2018-07-31 00:00:00-04:00,95.93113708496094
2018-08-01 00:00:00-04:00,95.12493133544922
2018-08-02 00:00:00-04:00,94.76949310302734
2018-08-03 00:00:00-04:00,96.18253326416016
2018-08-06 00:00:00-04:00,95.6363754272461
2018-08-07 00:00:00-04:00,95.32433319091797
2018-08-08 00:00:00-04:00,94.70881652832031
2018-08-09 00:00:00-04:00,95.09192657470703
2018-08-10 00:00:00-04:00,93.56814575195312
2018-08-13 00:00:00-04:00,92.3665771484375
2018-08-14 00:00:00-04:00,93.0370101928711
2018-08-15 00:00:00-04:00,93.19373321533203
2018-08-16 00:00:00-04:00,93.95128631591797
2018-08-17 00:00:00-04:00,94.40406799316406
2018-08-20 00:00:00-04:00,95.5447006225586
2018-08-21 00:00:00-04:00,96.72018432617188
2018-08-22 00:00:00-04:00,96.30223083496094
2018-08-23 00:00:00-04:00,95.57952880859375
2018-08-24 00:00:00-04:00,96.31965637207031
2018-08-27 00:00:00-04:00,96.76371002197266
2018-08-28 00:00:00-04:00,95.66661071777344
2018-08-29 00:00:00-04:00,97.2252197265625
2018-08-30 00:00:00-04:00,96.35447692871094
2018-08-31 00:00:00-04:00,96.25
2018-09-04 00:00:00-04:00,95.67532348632812
2018-09-05 00:00:00-04:00,96.30223083496094
2018-09-06 00:00:00-04:00,97.52125549316406
2018-09-07 00:00:00-04:00,97.09459686279297
2018-09-10 00:00:00-04:00,97.59961700439453
2018-09-11 00:00:00-04:00,98.03498840332031
2018-09-12 00:00:00-04:00,97.5473861694336
2018-09-13 00:00:00-04:00,98.34844970703125
2018-09-14 00:00:00-04:00,97.66928100585938
2018-09-17 00:00:00-04:00,98.38327026367188
2018-09-18 00:00:00-04:00,98.6270751953125
2018-09-19 00:00:00-04:00,100.17694854736328
2018-09-20 00:00:00-04:00,100.93450927734375
2018-09-21 00:00:00-04:00,100.98675537109375
2018-09-24 00:00:00-04:00,98.12207794189453
2018-09-25 00:00:00-04:00,97.12071228027344
2018-09-26 00:00:00-04:00,96.11939239501953
2018-09-27 00:00:00-04:00,94.90033721923828
2018-09-28 00:00:00-04:00,95.02227020263672
2018-10-01 00:00:00-04:00,95.56211853027344
2018-10-02 00:00:00-04:00,95.962646484375
2018-10-03 00:00:00-04:00,94.6739730834961
2018-10-04 00:00:00-04:00,94.43888854980469
2018-10-05 00:00:00-04:00,94.0557632446289
2018-10-08 00:00:00-04:00,95.41410064697266
2018-10-09 00:00:00-04:00,85.81871795654297
2018-10-10 00:00:00-04:00,86.7242660522461
2018-10-11 00:00:00-04:00,83.92052459716797
2018-10-12 00:00:00-04:00,82.79728698730469
2018-10-15 00:00:00-04:00,83.72026062011719
2018-10-16 00:00:00-04:00,85.48780822753906
2018-10-17 00:00:00-04:00,85.4355697631836
2018-10-18 00:00:00-04:00,86.1931381225586
2018-10-19 00:00:00-04:00,88.2828598022461
2018-10-22 00:00:00-04:00,88.5179443359375
2018-10-23 00:00:00-04:00,87.62110900878906
2018-10-24 00:00:00-04:00,85.13954162597656
2018-10-25 00:00:00-04:00,90.30293273925781
2018-10-26 00:00:00-04:00,89.53670501708984
2018-10-29 00:00:00-04:00,89.5889663696289
2018-10-30 00:00:00-04:00,90.74699401855469
2018-10-31 00:00:00-04:00,91.5045394897461
2018-11-01 00:00:00-04:00,92.94123840332031
2018-11-02 00:00:00-04:00,93.0892562866211
2018-11-05 00:00:00-05:00,92.68872833251953
2018-11-06 00:00:00-05:00,93.48108673095703
2018-11-07 00:00:00-05:00,95.37057495117188
2018-11-08 00:00:00-05:00,95.03823852539062
2018-11-09 00:00:00-05:00,94.19865417480469
2018-11-12 00:00:00-05:00,92.17842102050781
2018-11-13 00:00:00-05:00,91.22514343261719
2018-11-14 00:00:00-05:00,92.13469696044922
2018-11-15 00:00:00-05:00,93.64769744873047
2018-11-16 00:00:00-05:00,93.72639465332031
2018-11-19 00:00:00-05:00,94.1899185180664
2018-11-20 00:00:00-05:00,92.59822082519531
2018-11-21 00:00:00-05:00,93.41155242919922
2018-11-23 00:00:00-05:00,93.83132934570312
2018-11-26 00:00:00-05:00,93.87506103515625
2018-11-27 00:00:00-05:00,92.52823638916016
2018-11-28 00:00:00-05:00,94.1374282836914
2018-11-29 00:00:00-05:00,94.86331939697266
2018-11-30 00:00:00-05:00,95.61541748046875
2018-12-03 00:00:00-05:00,96.691162109375
2018-12-04 00:00:00-05:00,93.34159851074219
2018-12-06 00:00:00-05:00,92.51952362060547
2018-12-07 00:00:00-05:00,90.2806396484375
2018-12-10 00:00:00-05:00,90.48179626464844
2018-12-11 00:00:00-05:00,90.11445617675781
2018-12-12 00:00:00-05:00,90.48179626464844
2018-12-13 00:00:00-05:00,88.24291229248047
2018-12-14 00:00:00-05:00,87.57823944091797
2018-12-17 00:00:00-05:00,84.9458236694336
2018-12-18 00:00:00-05:00,84.56977081298828
2018-12-19 00:00:00-05:00,84.33363342285156
2018-12-20 00:00:00-05:00,84.89334869384766
2018-12-21 00:00:00-05:00,84.2374496459961
2018-12-24 00:00:00-05:00,83.60773468017578
2018-12-26 00:00:00-05:00,86.81739807128906
2018-12-27 00:00:00-05:00,88.69767761230469
2018-12-28 00:00:00-05:00,88.53150177001953
2018-12-31 00:00:00-05:00,89.40608215332031
2019-01-02 00:00:00-05:00,88.93382263183594
2019-01-03 00:00:00-05:00,85.68047332763672
2019-01-04 00:00:00-05:00,87.37708282470703
2019-01-07 00:00:00-05:00,87.66570281982422
2019-01-08 00:00:00-05:00,88.39158630371094
2019-01-09 00:00:00-05:00,88.76764678955078
2019-01-10 00:00:00-05:00,89.77338409423828
2019-01-11 00:00:00-05:00,89.08247375488281
2019-01-14 00:00:00-05:00,89.16993713378906
2019-01-15 00:00:00-05:00,88.33036041259766
2019-01-16 00:00:00-05:00,89.67719268798828
2019-01-17 00:00:00-05:00,93.89256286621094
2019-01-18 00:00:00-05:00,92.20466613769531
2019-01-22 00:00:00-05:00,91.26014709472656
2019-01-23 00:00:00-05:00,89.24864196777344
2019-01-24 00:00:00-05:00,89.39733123779297
2019-01-25 00:00:00-05:00,90.51677703857422
2019-01-28 00:00:00-05:00,90.69165802001953
2019-01-29 00:00:00-05:00,91.37384033203125
2019-01-30 00:00:00-05:00,91.87232208251953
2019-01-31 00:00:00-05:00,92.21340942382812
2019-02-01 00:00:00-05:00,92.50201416015625
2019-02-04 00:00:00-05:00,92.93055725097656
2019-02-05 00:00:00-05:00,93.58645629882812
2019-02-06 00:00:00-05:00,92.7906265258789
2019-02-07 00:00:00-05:00,91.6974105834961
2019-02-08 00:00:00-05:00,91.7061767578125
2019-02-11 00:00:00-05:00,91.58372497558594
2019-02-12 00:00:00-05:00,94.11119842529297
2019-02-13 00:00:00-05:00,94.35607147216797
2019-02-14 00:00:00-05:00,93.80509948730469
2019-02-15 00:00:00-05:00,95.42304229736328
2019-02-19 00:00:00-05:00,95.0907211303711
2019-02-20 00:00:00-05:00,95.97401428222656
2019-02-21 00:00:00-05:00,96.73821258544922
2019-02-22 00:00:00-05:00,97.888916015625
2019-02-25 00:00:00-05:00,98.66191101074219
2019-02-26 00:00:00-05:00,97.91529083251953
2019-02-27 00:00:00-05:00,98.5301513671875
2019-02-28 00:00:00-05:00,98.35448455810547
2019-03-01 00:00:00-05:00,99.04842376708984
2019-03-04 00:00:00-05:00,97.81864166259766
2019-03-05 00:00:00-05:00,97.28280639648438
2019-03-06 00:00:00-05:00,97.10716247558594
2019-03-07 00:00:00-05:00,96.48346710205078
2019-03-08 00:00:00-05:00,96.29901123046875
2019-03-11 00:00:00-04:00,97.76594543457031
2019-03-12 00:00:00-04:00,97.63419342041016
2019-03-13 00:00:00-04:00,97.79228973388672
2019-03-14 00:00:00-04:00,96.34293365478516
2019-03-15 00:00:00-04:00,96.650390625
2019-03-18 00:00:00-04:00,97.4585189819336
2019-03-19 00:00:00-04:00,97.41456604003906
2019-03-20 00:00:00-04:00,97.34432220458984
2019-03-21 00:00:00-04:00,98.94298553466797
2019-03-22 00:00:00-04:00,93.71651458740234
2019-03-25 00:00:00-04:00,94.0415267944336
2019-03-26 00:00:00-04:00,95.18345642089844
2019-03-27 00:00:00-04:00,96.69429779052734
2019-03-28 00:00:00-04:00,98.13488006591797
2019-03-29 00:00:00-04:00,99.14502716064453
2019-04-01 00:00:00-04:00,100.33087921142578
2019-04-02 00:00:00-04:00,100.34847259521484
2019-04-03 00:00:00-04:00,100.64710235595703
2019-04-04 00:00:00-04:00,101.01600646972656
2019-04-05 00:00:00-04:00,100.98088836669922
2019-04-08 00:00:00-04:00,100.48897552490234
2019-04-09 00:00:00-04:00,100.38357543945312
2019-04-10 00:00:00-04:00,100.92817687988281
2019-04-11 00:00:00-04:00,100.59439086914062
2019-04-12 00:00:00-04:00,101.54306030273438
2019-04-15 00:00:00-04:00,102.30725860595703
2019-04-16 00:00:00-04:00,104.00257873535156
2019-04-17 00:00:00-04:00,103.11539459228516
2019-04-18 00:00:00-04:00,105.28504180908203
2019-04-22 00:00:00-04:00,102.98363494873047
2019-04-23 00:00:00-04:00,103.31745147705078
2019-04-24 00:00:00-04:00,102.45661163330078
2019-04-25 00:00:00-04:00,101.4815902709961
2019-04-26 00:00:00-04:00,103.48432922363281
2019-04-29 00:00:00-04:00,102.86944580078125
2019-04-30 00:00:00-04:00,103.21202850341797
2019-05-01 00:00:00-04:00,101.42887878417969
2019-05-02 00:00:00-04:00,102.56200408935547
2019-05-03 00:00:00-04:00,103.32621002197266
2019-05-06 00:00:00-04:00,102.14916229248047
2019-05-07 00:00:00-04:00,100.54170989990234
2019-05-08 00:00:00-04:00,100.15518188476562
2019-05-09 00:00:00-04:00,99.57299041748047
2019-05-10 00:00:00-04:00,99.0084228515625
2019-05-13 00:00:00-04:00,98.13513946533203
2019-05-14 00:00:00-04:00,98.4085922241211
2019-05-15 00:00:00-04:00,98.74381256103516
2019-05-16 00:00:00-04:00,99.6082763671875
2019-05-17 00:00:00-04:00,98.59384155273438
2019-05-20 00:00:00-04:00,95.03892517089844
2019-05-21 00:00:00-04:00,96.15039825439453
2019-05-22 00:00:00-04:00,95.69169616699219
2019-05-23 00:00:00-04:00,94.2273941040039
2019-05-24 00:00:00-04:00,95.04774475097656
2019-05-28 00:00:00-04:00,94.83606719970703
2019-05-29 00:00:00-04:00,94.54495239257812
2019-05-30 00:00:00-04:00,94.5978775024414
2019-05-31 00:00:00-04:00,92.31321716308594
2019-06-03 00:00:00-04:00,95.07420349121094
2019-06-04 00:00:00-04:00,98.54092407226562
2019-06-05 00:00:00-04:00,99.1054916381836
2019-06-06 00:00:00-04:00,99.6700210571289
2019-06-07 00:00:00-04:00,100.55215454101562
2019-06-10 00:00:00-04:00,100.9050064086914
2019-06-11 00:00:00-04:00,103.07499694824219
2019-06-12 00:00:00-04:00,103.19850158691406
2019-06-13 00:00:00-04:00,103.12792205810547
2019-06-14 00:00:00-04:00,102.81035614013672
2019-06-17 00:00:00-04:00,101.3813247680664
2019-06-18 00:00:00-04:00,101.16080474853516
2019-06-19 00:00:00-04:00,102.0252685546875
2019-06-20 00:00:00-04:00,101.6106948852539
2019-06-21 00:00:00-04:00,102.38694763183594
2019-06-24 00:00:00-04:00,103.11909484863281
2019-06-25 00:00:00-04:00,102.5633773803711
2019-06-26 00:00:00-04:00,101.91060638427734
2019-06-27 00:00:00-04:00,102.2281723022461
2019-06-28 00:00:00-04:00,102.95149993896484
2019-07-01 00:00:00-04:00,104.6451416015625
2019-07-02 00:00:00-04:00,104.1688232421875
2019-07-03 00:00:00-04:00,105.0420913696289
2019-07-05 00:00:00-04:00,104.05413818359375
2019-07-08 00:00:00-04:00,102.66036224365234
2019-07-09 00:00:00-04:00,102.27227020263672
2019-07-10 00:00:00-04:00,101.80476379394531
2019-07-11 00:00:00-04:00,102.3251953125
2019-07-12 00:00:00-04:00,103.24259185791016
2019-07-15 00:00:00-04:00,103.83360290527344
2019-07-16 00:00:00-04:00,103.95711517333984
2019-07-17 00:00:00-04:00,102.86327362060547
2019-07-18 00:00:00-04:00,103.20730590820312
2019-07-19 00:00:00-04:00,103.65718841552734
2019-07-22 00:00:00-04:00,103.1632080078125
2019-07-23 00:00:00-04:00,104.93624877929688
2019-07-24 00:00:00-04:00,104.1776351928711
2019-07-25 00:00:00-04:00,104.21292114257812
2019-07-26 00:00:00-04:00,104.03651428222656
2019-07-29 00:00:00-04:00,104.46874237060547
2019-07-30 00:00:00-04:00,104.93624877929688
2019-07-31 00:00:00-04:00,103.55133819580078
2019-08-01 00:00:00-04:00,102.03408813476562
2019-08-02 00:00:00-04:00,100.71092987060547
2019-08-05 00:00:00-04:00,97.87934112548828
2019-08-06 00:00:00-04:00,97.89698028564453
2019-08-07 00:00:00-04:00,99.55536651611328
2019-08-08 00:00:00-04:00,102.8985595703125
2019-08-09 00:00:00-04:00,102.180908203125
2019-08-12 00:00:00-04:00,99.71788024902344
2019-08-13 00:00:00-04:00,100.19629669189453
2019-08-14 00:00:00-04:00,97.65353393554688
2019-08-15 00:00:00-04:00,97.1219253540039
2019-08-16 00:00:00-04:00,98.09649658203125
2019-08-19 00:00:00-04:00,98.89391326904297
2019-08-20 00:00:00-04:00,97.72441101074219
2019-08-21 00:00:00-04:00,98.07879638671875
2019-08-22 00:00:00-04:00,97.54721069335938
2019-08-23 00:00:00-04:00,94.39310455322266
2019-08-26 00:00:00-04:00,94.95126342773438
2019-08-27 00:00:00-04:00,95.16390991210938
2019-08-28 00:00:00-04:00,96.59918975830078
2019-08-29 00:00:00-04:00,97.58265686035156
2019-08-30 00:00:00-04:00,98.15853118896484
2019-09-03 00:00:00-04:00,97.83958435058594
2019-09-04 00:00:00-04:00,98.80530548095703
2019-09-05 00:00:00-04:00,100.41779327392578
2019-09-06 00:00:00-04:00,102.57962036132812
2019-09-09 00:00:00-04:00,103.22638702392578
2019-09-10 00:00:00-04:00,103.89970397949219
2019-09-11 00:00:00-04:00,104.26299285888672
2019-09-12 00:00:00-04:00,104.73255920410156
2019-09-13 00:00:00-04:00,105.7691650390625
2019-09-16 00:00:00-04:00,102.2074966430664
2019-09-17 00:00:00-04:00,103.8465805053711
2019-09-18 00:00:00-04:00,105.81348419189453
2019-09-19 00:00:00-04:00,106.92979431152344
2019-09-20 00:00:00-04:00,105.66284942626953
2019-09-23 00:00:00-04:00,104.85661315917969
2019-09-24 00:00:00-04:00,102.97831726074219
2019-09-25 00:00:00-04:00,103.35928344726562
2019-09-26 00:00:00-04:00,103.35928344726562
2019-09-27 00:00:00-04:00,104.74141693115234
2019-09-30 00:00:00-04:00,104.99835205078125
2019-10-01 00:00:00-04:00,103.54534912109375
2019-10-02 00:00:00-04:00,101.36580657958984
2019-10-03 00:00:00-04:00,101.5341567993164
2019-10-04 00:00:00-04:00,103.32386016845703
2019-10-07 00:00:00-04:00,102.51757049560547
2019-10-08 00:00:00-04:00,99.54069519042969
2019-10-09 00:00:00-04:00,101.51644134521484
2019-10-10 00:00:00-04:00,102.4732894897461
2019-10-11 00:00:00-04:00,105.5831298828125
2019-10-14 00:00:00-04:00,103.8465805053711
2019-10-15 00:00:00-04:00,104.73255920410156
2019-10-16 00:00:00-04:00,105.39707946777344
2019-10-17 00:00:00-04:00,107.41709899902344
2019-10-18 00:00:00-04:00,110.06622314453125
2019-10-21 00:00:00-04:00,110.46488952636719
2019-10-22 00:00:00-04:00,110.98762512207031
2019-10-23 00:00:00-04:00,110.27885437011719
2019-10-24 00:00:00-04:00,109.49031066894531
2019-10-25 00:00:00-04:00,109.89785766601562
2019-10-28 00:00:00-04:00,109.60547637939453
2019-10-29 00:00:00-04:00,110.79271697998047
2019-10-30 00:00:00-04:00,111.61668395996094
2019-10-31 00:00:00-04:00,110.85474395751953
2019-11-01 00:00:00-04:00,111.13825225830078
2019-11-04 00:00:00-05:00,113.4861068725586
2019-11-05 00:00:00-05:00,114.19489288330078
2019-11-06 00:00:00-05:00,114.97456359863281
2019-11-07 00:00:00-05:00,115.02771759033203
2019-11-08 00:00:00-05:00,114.67193603515625
2019-11-11 00:00:00-05:00,114.9209976196289
2019-11-12 00:00:00-05:00,115.85494232177734
2019-11-13 00:00:00-05:00,115.91722106933594
2019-11-14 00:00:00-05:00,115.41018676757812
2019-11-15 00:00:00-05:00,115.1878433227539
2019-11-18 00:00:00-05:00,114.67193603515625
2019-11-19 00:00:00-05:00,114.55630493164062
2019-11-20 00:00:00-05:00,112.51939392089844
2019-11-21 00:00:00-05:00,111.7900161743164
2019-11-22 00:00:00-05:00,111.54985809326172
2019-11-25 00:00:00-05:00,113.66682434082031
2019-11-26 00:00:00-05:00,115.37464141845703
2019-11-27 00:00:00-05:00,114.91207885742188
2019-11-29 00:00:00-05:00,114.60077667236328
2019-12-02 00:00:00-05:00,114.29837036132812
2019-12-03 00:00:00-05:00,113.81803131103516
2019-12-04 00:00:00-05:00,114.83203887939453
2019-12-05 00:00:00-05:00,116.6376953125
2019-12-06 00:00:00-05:00,117.89188385009766
2019-12-09 00:00:00-05:00,118.28324127197266
2019-12-10 00:00:00-05:00,117.8296127319336
2019-12-11 00:00:00-05:00,117.68730163574219
2019-12-12 00:00:00-05:00,118.9770278930664
2019-12-13 00:00:00-05:00,118.30992126464844
2019-12-16 00:00:00-05:00,118.52340698242188
2019-12-17 00:00:00-05:00,118.38999938964844
2019-12-18 00:00:00-05:00,117.10022735595703
2019-12-19 00:00:00-05:00,117.78511047363281
2019-12-20 00:00:00-05:00,117.8296127319336
2019-12-23 00:00:00-05:00,118.30992126464844
2019-12-24 00:00:00-05:00,118.7813491821289
2019-12-26 00:00:00-05:00,118.6212387084961
2019-12-27 00:00:00-05:00,118.57674407958984
2019-12-30 00:00:00-05:00,118.22986602783203
2019-12-31 00:00:00-05:00,118.73685455322266
2020-01-02 00:00:00-05:00,117.0557632446289
2020-01-03 00:00:00-05:00,115.35684967041016
2020-01-06 00:00:00-05:00,114.8231430053711
2020-01-07 00:00:00-05:00,113.92477416992188
2020-01-08 00:00:00-05:00,114.21831512451172
2020-01-09 00:00:00-05:00,114.44068145751953
2020-01-10 00:00:00-05:00,113.93366241455078
2020-01-13 00:00:00-05:00,114.93879699707031
2020-01-14 00:00:00-05:00,115.57029724121094
2020-01-15 00:00:00-05:00,116.29078674316406
2020-01-16 00:00:00-05:00,113.32882690429688
2020-01-17 00:00:00-05:00,114.28948974609375
2020-01-21 00:00:00-05:00,111.97679901123047
2020-01-22 00:00:00-05:00,112.21696472167969
2020-01-23 00:00:00-05:00,112.30591583251953
2020-01-24 00:00:00-05:00,111.9056625366211
2020-01-27 00:00:00-05:00,109.37062072753906
2020-01-28 00:00:00-05:00,110.3223876953125
2020-01-29 00:00:00-05:00,109.77979278564453
2020-01-30 00:00:00-05:00,109.5040512084961
2020-01-31 00:00:00-05:00,106.59544372558594
2020-02-03 00:00:00-05:00,107.92967224121094
2020-02-04 00:00:00-05:00,108.98815155029297
2020-02-05 00:00:00-05:00,111.06063842773438
2020-02-06 00:00:00-05:00,110.61590576171875
2020-02-07 00:00:00-05:00,109.05933380126953
2020-02-10 00:00:00-05:00,107.52940368652344
2020-02-11 00:00:00-05:00,108.47227478027344
2020-02-12 00:00:00-05:00,108.83694458007812
2020-02-13 00:00:00-05:00,107.14694213867188
2020-02-14 00:00:00-05:00,106.87120056152344
2020-02-18 00:00:00-05:00,106.14181518554688
2020-02-19 00:00:00-05:00,106.3108139038086
2020-02-20 00:00:00-05:00,106.62348175048828
2020-02-21 00:00:00-05:00,106.22150421142578
2020-02-24 00:00:00-05:00,102.96990203857422
2020-02-25 00:00:00-05:00,97.93171691894531
2020-02-26 00:00:00-05:00,97.4493408203125
2020-02-27 00:00:00-05:00,92.53622436523438
2020-02-28 00:00:00-05:00,93.30448150634766
2020-03-02 00:00:00-05:00,94.07269287109375
2020-03-03 00:00:00-05:00,93.25086212158203
2020-03-04 00:00:00-05:00,96.43993377685547
2020-03-05 00:00:00-05:00,91.69654083251953
2020-03-06 00:00:00-05:00,90.62458801269531
2020-03-09 00:00:00-04:00,87.01568603515625
2020-03-10 00:00:00-04:00,91.09803009033203
2020-03-11 00:00:00-04:00,86.62265014648438
2020-03-12 00:00:00-04:00,80.30706787109375
2020-03-13 00:00:00-04:00,84.13927459716797
2020-03-16 00:00:00-04:00,73.6252212524414
2020-03-17 00:00:00-04:00,73.80387878417969
2020-03-18 00:00:00-04:00,65.1389389038086
2020-03-19 00:00:00-04:00,68.39051055908203
2020-03-20 00:00:00-04:00,71.21333312988281
2020-03-23 00:00:00-04:00,64.76375579833984
2020-03-24 00:00:00-04:00,73.2947006225586
2020-03-25 00:00:00-04:00,76.56414794921875
2020-03-26 00:00:00-04:00,80.18199920654297
2020-03-27 00:00:00-04:00,75.929931640625
2020-03-30 00:00:00-04:00,76.75175476074219
2020-03-31 00:00:00-04:00,74.6793212890625
2020-04-01 00:00:00-04:00,71.36518859863281
2020-04-02 00:00:00-04:00,72.11553955078125
2020-04-03 00:00:00-04:00,71.84756469726562
2020-04-06 00:00:00-04:00,77.385986328125
2020-04-07 00:00:00-04:00,81.37006378173828
2020-04-08 00:00:00-04:00,83.388916015625
2020-04-09 00:00:00-04:00,86.80130767822266
2020-04-13 00:00:00-04:00,83.68370819091797
2020-04-14 00:00:00-04:00,82.888671875
2020-04-15 00:00:00-04:00,79.03858184814453
2020-04-16 00:00:00-04:00,79.41377258300781
2020-04-17 00:00:00-04:00,83.35317993164062
2020-04-20 00:00:00-04:00,81.37902069091797
2020-04-21 00:00:00-04:00,78.61872100830078
2020-04-22 00:00:00-04:00,80.45892333984375
2020-04-23 00:00:00-04:00,80.86088562011719
2020-04-24 00:00:00-04:00,82.843994140625
2020-04-27 00:00:00-04:00,85.75614166259766
2020-04-28 00:00:00-04:00,81.72737884521484
2020-04-29 00:00:00-04:00,85.64893341064453
2020-04-30 00:00:00-04:00,81.1378173828125
2020-05-01 00:00:00-04:00,78.60978698730469
2020-05-04 00:00:00-04:00,77.56463623046875
2020-05-05 00:00:00-04:00,78.85099029541016
2020-05-06 00:00:00-04:00,79.32442474365234
2020-05-07 00:00:00-04:00,80.71797180175781
2020-05-08 00:00:00-04:00,82.63148498535156
2020-05-11 00:00:00-04:00,81.23001098632812
2020-05-12 00:00:00-04:00,78.72359466552734
2020-05-13 00:00:00-04:00,75.67814636230469
2020-05-14 00:00:00-04:00,77.2323226928711
2020-05-15 00:00:00-04:00,78.08576965332031
2020-05-18 00:00:00-04:00,82.51470184326172
2020-05-19 00:00:00-04:00,83.7454833984375
2020-05-20 00:00:00-04:00,86.23391723632812
2020-05-21 00:00:00-04:00,85.42538452148438
2020-05-22 00:00:00-04:00,86.40461730957031
2020-05-26 00:00:00-04:00,89.83635711669922
2020-05-27 00:00:00-04:00,91.94749450683594
2020-05-28 00:00:00-04:00,92.2080307006836
2020-05-29 00:00:00-04:00,91.33663940429688
2020-06-01 00:00:00-04:00,92.86384582519531
2020-06-02 00:00:00-04:00,96.5920639038086
2020-06-03 00:00:00-04:00,100.3292465209961
2020-06-04 00:00:00-04:00,99.82617950439453
2020-06-05 00:00:00-04:00,102.3685302734375
2020-06-08 00:00:00-04:00,101.87443542480469
2020-06-09 00:00:00-04:00,100.0956802368164
2020-06-10 00:00:00-04:00,97.95756530761719
2020-06-11 00:00:00-04:00,89.44107818603516
2020-06-12 00:00:00-04:00,91.3006820678711
2020-06-15 00:00:00-04:00,92.71110534667969
2020-06-16 00:00:00-04:00,94.11257934570312
2020-06-17 00:00:00-04:00,94.21141052246094
2020-06-18 00:00:00-04:00,93.80712127685547
2020-06-19 00:00:00-04:00,93.17826843261719
2020-06-22 00:00:00-04:00,93.13333892822266
2020-06-23 00:00:00-04:00,93.15133666992188
2020-06-24 00:00:00-04:00,91.52528381347656
2020-06-25 00:00:00-04:00,92.3248291015625
2020-06-26 00:00:00-04:00,91.75885772705078
2020-06-29 00:00:00-04:00,93.37590789794922
2020-06-30 00:00:00-04:00,95.28043365478516
2020-07-01 00:00:00-04:00,95.54098510742188
2020-07-02 00:00:00-04:00,97.98450469970703
2020-07-06 00:00:00-04:00,98.71218872070312
2020-07-07 00:00:00-04:00,97.40058135986328
2020-07-08 00:00:00-04:00,95.64877319335938
2020-07-09 00:00:00-04:00,94.4000473022461
2020-07-10 00:00:00-04:00,96.16082763671875
2020-07-13 00:00:00-04:00,98.26300811767578
2020-07-14 00:00:00-04:00,100.36519622802734
2020-07-15 00:00:00-04:00,103.86878967285156
2020-07-16 00:00:00-04:00,103.54539489746094
2020-07-17 00:00:00-04:00,100.50889587402344
2020-07-20 00:00:00-04:00,98.27198791503906
2020-07-21 00:00:00-04:00,98.96373748779297
2020-07-22 00:00:00-04:00,100.3292465209961
2020-07-23 00:00:00-04:00,99.56564331054688
2020-07-24 00:00:00-04:00,99.32307434082031
2020-07-27 00:00:00-04:00,99.02662658691406
2020-07-28 00:00:00-04:00,97.5443344116211
2020-07-29 00:00:00-04:00,99.1883316040039
2020-07-30 00:00:00-04:00,97.20295715332031
2020-07-31 00:00:00-04:00,96.7088394165039
2020-08-03 00:00:00-04:00,96.46627044677734
2020-08-04 00:00:00-04:00,96.83460998535156
2020-08-05 00:00:00-04:00,100.311279296875
2020-08-06 00:00:00-04:00,100.1136474609375
2020-08-07 00:00:00-04:00,102.65034484863281
2020-08-10 00:00:00-04:00,104.4828872680664
2020-08-11 00:00:00-04:00,109.13198852539062
2020-08-12 00:00:00-04:00,109.2222671508789
2020-08-13 00:00:00-04:00,107.2542953491211
2020-08-14 00:00:00-04:00,107.40776824951172
2020-08-17 00:00:00-04:00,107.35359954833984
2020-08-18 00:00:00-04:00,107.1459732055664
2020-08-19 00:00:00-04:00,107.10082244873047
2020-08-20 00:00:00-04:00,106.73973083496094
2020-08-21 00:00:00-04:00,106.73074340820312
2020-08-24 00:00:00-04:00,109.30351257324219
2020-08-25 00:00:00-04:00,108.16605377197266
2020-08-26 00:00:00-04:00,108.2834243774414
2020-08-27 00:00:00-04:00,109.04170989990234
2020-08-28 00:00:00-04:00,110.24237823486328
2020-08-31 00:00:00-04:00,108.68965911865234
2020-09-01 00:00:00-04:00,111.93952178955078
2020-09-02 00:00:00-04:00,113.72692108154297
2020-09-03 00:00:00-04:00,110.84719848632812
2020-09-04 00:00:00-04:00,110.68470001220703
2020-09-08 00:00:00-04:00,109.2222671508789
2020-09-09 00:00:00-04:00,113.14918518066406
2020-09-10 00:00:00-04:00,113.51026916503906
2020-09-11 00:00:00-04:00,114.73799133300781
2020-09-14 00:00:00-04:00,117.5455093383789
2020-09-15 00:00:00-04:00,117.28370666503906
2020-09-16 00:00:00-04:00,116.48931121826172
2020-09-17 00:00:00-04:00,116.67887878417969
2020-09-18 00:00:00-04:00,113.537353515625
2020-09-21 00:00:00-04:00,108.40078735351562
2020-09-22 00:00:00-04:00,109.06880950927734
2020-09-23 00:00:00-04:00,106.81195068359375
2020-09-24 00:00:00-04:00,107.38068389892578
2020-09-25 00:00:00-04:00,108.55423736572266
2020-09-28 00:00:00-04:00,109.89930725097656
2020-09-29 00:00:00-04:00,108.62644958496094
2020-09-30 00:00:00-04:00,110.20624542236328
2020-10-01 00:00:00-04:00,109.93541717529297
2020-10-02 00:00:00-04:00,111.28050994873047
2020-10-05 00:00:00-04:00,113.67276000976562
2020-10-06 00:00:00-04:00,112.43601989746094
2020-10-07 00:00:00-04:00,116.3990478515625
2020-10-08 00:00:00-04:00,121.8606185913086
2020-10-09 00:00:00-04:00,122.66405487060547
2020-10-12 00:00:00-04:00,122.81751251220703
2020-10-13 00:00:00-04:00,120.57870483398438
2020-10-14 00:00:00-04:00,121.49949645996094
2020-10-15 00:00:00-04:00,123.44038391113281
2020-10-16 00:00:00-04:00,123.81954956054688
2020-10-19 00:00:00-04:00,121.25576782226562
2020-10-20 00:00:00-04:00,121.53560638427734
2020-10-21 00:00:00-04:00,120.99396514892578
2020-10-22 00:00:00-04:00,120.69606018066406
2020-10-23 00:00:00-04:00,121.21064758300781
2020-10-26 00:00:00-04:00,118.55656433105469
2020-10-27 00:00:00-04:00,114.99977111816406
2020-10-28 00:00:00-04:00,113.03182983398438
2020-10-29 00:00:00-04:00,115.64073944091797
2020-10-30 00:00:00-04:00,117.1031723022461
2020-11-02 00:00:00-05:00,122.03208923339844
2020-11-03 00:00:00-05:00,123.54871368408203
2020-11-04 00:00:00-05:00,119.89260864257812
2020-11-05 00:00:00-05:00,124.81253051757812
2020-11-06 00:00:00-05:00,125.26392364501953
2020-11-09 00:00:00-05:00,128.57179260253906
2020-11-10 00:00:00-05:00,129.4327392578125
2020-11-11 00:00:00-05:00,129.27870178222656
2020-11-12 00:00:00-05:00,126.75924682617188
2020-11-13 00:00:00-05:00,129.4327392578125
2020-11-16 00:00:00-05:00,130.74681091308594
2020-11-17 00:00:00-05:00,129.84054565429688
2020-11-18 00:00:00-05:00,129.4146270751953
2020-11-19 00:00:00-05:00,129.79527282714844
2020-11-20 00:00:00-05:00,129.6321258544922
2020-11-23 00:00:00-05:00,131.20901489257812
2020-11-24 00:00:00-05:00,134.06373596191406
2020-11-25 00:00:00-05:00,132.9399871826172
2020-11-27 00:00:00-05:00,133.9278106689453
2020-11-30 00:00:00-05:00,133.012451171875
2020-12-01 00:00:00-05:00,135.1331329345703
2020-12-02 00:00:00-05:00,133.3206024169922
2020-12-03 00:00:00-05:00,131.798095703125
2020-12-04 00:00:00-05:00,133.15750122070312
2020-12-07 00:00:00-05:00,131.3177947998047
2020-12-08 00:00:00-05:00,131.29965209960938
2020-12-09 00:00:00-05:00,131.7618408203125
2020-12-10 00:00:00-05:00,129.89491271972656
2020-12-11 00:00:00-05:00,129.5324249267578
2020-12-14 00:00:00-05:00,128.4720916748047
2020-12-15 00:00:00-05:00,130.61087036132812
2020-12-16 00:00:00-05:00,129.4961700439453
2020-12-17 00:00:00-05:00,130.7649383544922
2020-12-18 00:00:00-05:00,131.798095703125
2020-12-21 00:00:00-05:00,132.40528869628906
2020-12-22 00:00:00-05:00,131.13648986816406
2020-12-23 00:00:00-05:00,130.3843231201172
2020-12-24 00:00:00-05:00,131.408447265625
2020-12-28 00:00:00-05:00,129.7499237060547
2020-12-29 00:00:00-05:00,129.50521850585938
2020-12-30 00:00:00-05:00,129.79527282714844
2020-12-31 00:00:00-05:00,130.70152282714844
2021-01-04 00:00:00-05:00,128.0642852783203
2021-01-05 00:00:00-05:00,130.81024169921875
2021-01-06 00:00:00-05:00,134.97000122070312
2021-01-07 00:00:00-05:00,136.69192504882812
2021-01-08 00:00:00-05:00,134.39907836914062
2021-01-11 00:00:00-05:00,135.44126892089844
2021-01-12 00:00:00-05:00,137.09971618652344
2021-01-13 00:00:00-05:00,137.76132202148438
2021-01-14 00:00:00-05:00,137.5256805419922
2021-01-15 00:00:00-05:00,134.1634063720703
2021-01-19 00:00:00-05:00,131.4446258544922
2021-01-20 00:00:00-05:00,131.00059509277344
2021-01-21 00:00:00-05:00,130.076171875
2021-01-22 00:00:00-05:00,124.90142059326172
2021-01-25 00:00:00-05:00,127.42082977294922
2021-01-26 00:00:00-05:00,127.79238891601562
2021-01-27 00:00:00-05:00,126.8317642211914
2021-01-28 00:00:00-05:00,126.0976791381836
2021-01-29 00:00:00-05:00,122.08293151855469
2021-02-01 00:00:00-05:00,125.59017944335938
2021-02-02 00:00:00-05:00,127.35735321044922
2021-02-03 00:00:00-05:00,126.7955551147461
2021-02-04 00:00:00-05:00,126.2064437866211
2021-02-05 00:00:00-05:00,126.97673797607422
2021-02-08 00:00:00-05:00,127.07645416259766
2021-02-09 00:00:00-05:00,124.42109680175781
2021-02-10 00:00:00-05:00,125.02831268310547
2021-02-11 00:00:00-05:00,125.11893463134766
2021-02-12 00:00:00-05:00,125.56299591064453
2021-02-16 00:00:00-05:00,124.47547912597656
2021-02-17 00:00:00-05:00,123.79580688476562
2021-02-18 00:00:00-05:00,124.00505065917969
2021-02-19 00:00:00-05:00,124.35078430175781
2021-02-22 00:00:00-05:00,122.33092498779297
2021-02-23 00:00:00-05:00,122.80400848388672
2021-02-24 00:00:00-05:00,124.55095672607422
2021-02-25 00:00:00-05:00,122.80400848388672
2021-02-26 00:00:00-05:00,122.66754150390625
2021-03-01 00:00:00-05:00,125.4244155883789
2021-03-02 00:00:00-05:00,128.0812225341797
2021-03-03 00:00:00-05:00,127.03486633300781
2021-03-04 00:00:00-05:00,125.4062271118164
2021-03-05 00:00:00-05:00,129.75537109375
2021-03-08 00:00:00-05:00,132.9307861328125
2021-03-09 00:00:00-05:00,132.9034881591797
2021-03-10 00:00:00-05:00,135.09625244140625
2021-03-11 00:00:00-05:00,132.9034881591797
2021-03-12 00:00:00-05:00,132.20286560058594
2021-03-15 00:00:00-04:00,131.97540283203125
2021-03-16 00:00:00-04:00,131.74795532226562
2021-03-17 00:00:00-04:00,133.34933471679688
2021-03-18 00:00:00-04:00,136.2972869873047
2021-03-19 00:00:00-04:00,134.13177490234375
2021-03-22 00:00:00-04:00,134.60487365722656
2021-03-23 00:00:00-04:00,134.1772918701172
2021-03-24 00:00:00-04:00,134.80511474609375
2021-03-25 00:00:00-04:00,138.6083221435547
2021-03-26 00:00:00-04:00,140.86480712890625
2021-03-29 00:00:00-04:00,141.5016632080078
2021-03-30 00:00:00-04:00,139.01773071289062
2021-03-31 00:00:00-04:00,136.71580505371094
2021-04-01 00:00:00-04:00,138.26258850097656
2021-04-05 00:00:00-04:00,139.71836853027344
2021-04-06 00:00:00-04:00,139.72743225097656
2021-04-07 00:00:00-04:00,134.63221740722656
2021-04-08 00:00:00-04:00,134.70501708984375
2021-04-09 00:00:00-04:00,136.90687561035156
2021-04-12 00:00:00-04:00,137.74395751953125
2021-04-13 00:00:00-04:00,137.45281982421875
2021-04-14 00:00:00-04:00,137.27084350585938
2021-04-15 00:00:00-04:00,140.09136962890625
2021-04-16 00:00:00-04:00,152.31993103027344
2021-04-19 00:00:00-04:00,153.5664520263672
2021-04-20 00:00:00-04:00,153.7666015625
2021-04-21 00:00:00-04:00,157.9246826171875
2021-04-22 00:00:00-04:00,156.09584045410156
2021-04-23 00:00:00-04:00,158.90725708007812
2021-04-26 00:00:00-04:00,157.5243682861328
2021-04-27 00:00:00-04:00,156.70545959472656
2021-04-28 00:00:00-04:00,156.9966278076172
2021-04-29 00:00:00-04:00,157.57894897460938
2021-04-30 00:00:00-04:00,155.8046875
2021-05-03 00:00:00-04:00,157.4151611328125
2021-05-04 00:00:00-04:00,162.63775634765625
2021-05-05 00:00:00-04:00,162.90158081054688
2021-05-06 00:00:00-04:00,163.85696411132812
2021-05-07 00:00:00-04:00,163.80221557617188
2021-05-10 00:00:00-04:00,163.60145568847656
2021-05-11 00:00:00-04:00,163.34591674804688
2021-05-12 00:00:00-04:00,158.6551971435547
2021-05-13 00:00:00-04:00,162.47897338867188
2021-05-14 00:00:00-04:00,163.4462890625
2021-05-17 00:00:00-04:00,164.23114013671875
2021-05-18 00:00:00-04:00,161.6758575439453
2021-05-19 00:00:00-04:00,160.9366455078125
2021-05-20 00:00:00-04:00,161.9678955078125
2021-05-21 00:00:00-04:00,162.85311889648438
2021-05-24 00:00:00-04:00,163.87522888183594
2021-05-25 00:00:00-04:00,163.4462890625
2021-05-26 00:00:00-04:00,163.1269073486328
2021-05-27 00:00:00-04:00,164.9886016845703
2021-05-28 00:00:00-04:00,164.0120849609375
2021-06-01 00:00:00-04:00,164.9521026611328
2021-06-02 00:00:00-04:00,164.57791137695312
2021-06-03 00:00:00-04:00,165.17112731933594
2021-06-04 00:00:00-04:00,166.39401245117188
2021-06-07 00:00:00-04:00,164.24935913085938
2021-06-08 00:00:00-04:00,163.4189453125
2021-06-09 00:00:00-04:00,161.63026428222656
2021-06-10 00:00:00-04:00,161.88575744628906
2021-06-11 00:00:00-04:00,162.01351928710938
2021-06-14 00:00:00-04:00,160.05145263671875
2021-06-15 00:00:00-04:00,160.9366455078125
2021-06-16 00:00:00-04:00,159.44911193847656
2021-06-17 00:00:00-04:00,156.20028686523438
2021-06-18 00:00:00-04:00,153.4259796142578
2021-06-21 00:00:00-04:00,156.63832092285156
2021-06-22 00:00:00-04:00,156.5196533203125
2021-06-23 00:00:00-04:00,154.85874938964844
2021-06-24 00:00:00-04:00,154.70362854003906
2021-06-25 00:00:00-04:00,152.5955352783203
2021-06-28 00:00:00-04:00,153.71798706054688
2021-06-29 00:00:00-04:00,153.82752990722656
2021-06-30 00:00:00-04:00,154.9317626953125
2021-07-01 00:00:00-04:00,155.13253784179688
2021-07-02 00:00:00-04:00,155.74398803710938
2021-07-06 00:00:00-04:00,154.23817443847656
2021-07-07 00:00:00-04:00,157.2406768798828
2021-07-08 00:00:00-04:00,154.20166015625
2021-07-09 00:00:00-04:00,156.42845153808594
2021-07-12 00:00:00-04:00,157.0398406982422
2021-07-13 00:00:00-04:00,155.0868682861328
2021-07-14 00:00:00-04:00,155.22381591796875
2021-07-15 00:00:00-04:00,156.4923095703125
2021-07-16 00:00:00-04:00,155.3241424560547
2021-07-19 00:00:00-04:00,151.2631378173828
2021-07-20 00:00:00-04:00,144.63763427734375
2021-07-21 00:00:00-04:00,145.80577087402344
2021-07-22 00:00:00-04:00,146.47198486328125
2021-07-23 00:00:00-04:00,148.6804656982422
2021-07-26 00:00:00-04:00,150.52389526367188
2021-07-27 00:00:00-04:00,150.7064208984375
2021-07-28 00:00:00-04:00,149.0728759765625
2021-07-29 00:00:00-04:00,148.625732421875
2021-07-30 00:00:00-04:00,149.22801208496094
2021-08-02 00:00:00-04:00,149.0272674560547
2021-08-03 00:00:00-04:00,151.1536102294922
2021-08-04 00:00:00-04:00,149.49267578125
2021-08-05 00:00:00-04:00,148.70785522460938
2021-08-06 00:00:00-04:00,149.8759765625
2021-08-09 00:00:00-04:00,150.48048400878906
2021-08-10 00:00:00-04:00,153.28309631347656
2021-08-11 00:00:00-04:00,155.8750457763672
2021-08-12 00:00:00-04:00,156.05824279785156
2021-08-13 00:00:00-04:00,155.49951171875
2021-08-16 00:00:00-04:00,155.14231872558594
2021-08-17 00:00:00-04:00,152.57785034179688
2021-08-18 00:00:00-04:00,150.6728057861328
2021-08-19 00:00:00-04:00,147.58624267578125
2021-08-20 00:00:00-04:00,147.5679473876953
2021-08-23 00:00:00-04:00,148.70362854003906
2021-08-24 00:00:00-04:00,149.17990112304688
2021-08-25 00:00:00-04:00,149.6470184326172
2021-08-26 00:00:00-04:00,147.5953826904297
2021-08-27 00:00:00-04:00,148.22738647460938
2021-08-30 00:00:00-04:00,148.1083526611328
2021-08-31 00:00:00-04:00,146.1300048828125
2021-09-01 00:00:00-04:00,144.48138427734375
2021-09-02 00:00:00-04:00,145.28738403320312
2021-09-03 00:00:00-04:00,142.5671844482422
2021-09-07 00:00:00-04:00,137.74961853027344
2021-09-08 00:00:00-04:00,138.31747436523438
2021-09-09 00:00:00-04:00,141.55972290039062
2021-09-10 00:00:00-04:00,140.1584014892578
2021-09-13 00:00:00-04:00,139.68212890625
2021-09-14 00:00:00-04:00,137.6855010986328
2021-09-15 00:00:00-04:00,138.03353881835938
2021-09-16 00:00:00-04:00,137.19090270996094
2021-09-17 00:00:00-04:00,134.3974609375
2021-09-20 00:00:00-04:00,134.00364685058594
2021-09-21 00:00:00-04:00,133.40829467773438
2021-09-22 00:00:00-04:00,133.0419464111328
2021-09-23 00:00:00-04:00,134.19595336914062
2021-09-24 00:00:00-04:00,136.08265686035156
2021-09-27 00:00:00-04:00,135.69802856445312
2021-09-28 00:00:00-04:00,133.80213928222656
2021-09-29 00:00:00-04:00,133.49070739746094
2021-09-30 00:00:00-04:00,130.981201171875
2021-10-01 00:00:00-04:00,131.89707946777344
2021-10-04 00:00:00-04:00,131.89707946777344
2021-10-05 00:00:00-04:00,133.5823211669922
2021-10-06 00:00:00-04:00,134.4066162109375
2021-10-07 00:00:00-04:00,137.82289123535156
2021-10-08 00:00:00-04:00,138.06103515625
2021-10-11 00:00:00-04:00,139.08682250976562
2021-10-12 00:00:00-04:00,139.94775390625
2021-10-13 00:00:00-04:00,141.6696014404297
2021-10-14 00:00:00-04:00,145.51637268066406
2021-10-15 00:00:00-04:00,146.81686401367188
2021-10-18 00:00:00-04:00,144.1608428955078
2021-10-19 00:00:00-04:00,145.5712890625
2021-10-20 00:00:00-04:00,146.93597412109375
2021-10-21 00:00:00-04:00,151.12158203125
2021-10-22 00:00:00-04:00,148.11746215820312
2021-10-25 00:00:00-04:00,146.6062774658203
2021-10-26 00:00:00-04:00,148.25485229492188
2021-10-27 00:00:00-04:00,147.93431091308594
2021-10-28 00:00:00-04:00,149.27149963378906
2021-10-29 00:00:00-04:00,147.06417846679688
2021-11-01 00:00:00-04:00,145.6537322998047
2021-11-02 00:00:00-04:00,148.2731475830078
2021-11-03 00:00:00-04:00,149.1157684326172
2021-11-04 00:00:00-04:00,149.51878356933594
2021-11-05 00:00:00-04:00,149.37222290039062
2021-11-08 00:00:00-05:00,148.80438232421875
2021-11-09 00:00:00-05:00,148.4091339111328
2021-11-10 00:00:00-05:00,147.7472381591797
2021-11-11 00:00:00-05:00,146.6258087158203
2021-11-12 00:00:00-05:00,148.58377075195312
2021-11-15 00:00:00-05:00,149.7695770263672
2021-11-16 00:00:00-05:00,151.52528381347656
2021-11-17 00:00:00-05:00,151.0289306640625
2021-11-18 00:00:00-05:00,149.23643493652344
2021-11-19 00:00:00-05:00,147.84841918945312
2021-11-22 00:00:00-05:00,148.26206970214844
2021-11-23 00:00:00-05:00,147.47149658203125
2021-11-24 00:00:00-05:00,145.93638610839844
2021-11-26 00:00:00-05:00,143.03163146972656
2021-11-29 00:00:00-05:00,144.6494903564453
2021-11-30 00:00:00-05:00,141.71713256835938
2021-12-01 00:00:00-05:00,141.08287048339844
2021-12-02 00:00:00-05:00,146.18458557128906
2021-12-03 00:00:00-05:00,147.4347686767578
2021-12-06 00:00:00-05:00,151.1483917236328
2021-12-07 00:00:00-05:00,152.8489532470703
2021-12-08 00:00:00-05:00,151.5069122314453
2021-12-09 00:00:00-05:00,150.79913330078125
2021-12-10 00:00:00-05:00,150.17404174804688
2021-12-13 00:00:00-05:00,149.6592559814453
2021-12-14 00:00:00-05:00,149.33753967285156
2021-12-15 00:00:00-05:00,152.46290588378906
2021-12-16 00:00:00-05:00,155.64344787597656
2021-12-17 00:00:00-05:00,151.2954864501953
2021-12-20 00:00:00-05:00,147.7012939453125
2021-12-21 00:00:00-05:00,150.68878173828125
2021-12-22 00:00:00-05:00,152.35260009765625
2021-12-23 00:00:00-05:00,153.5659637451172
2021-12-27 00:00:00-05:00,156.02951049804688
2021-12-28 00:00:00-05:00,157.36239624023438
2021-12-29 00:00:00-05:00,157.38075256347656
2021-12-30 00:00:00-05:00,157.27047729492188
2021-12-31 00:00:00-05:00,158.51141357421875
2022-01-03 00:00:00-05:00,156.8200225830078
2022-01-04 00:00:00-05:00,157.41749572753906
2022-01-05 00:00:00-05:00,159.11810302734375
2022-01-06 00:00:00-05:00,156.83837890625
2022-01-07 00:00:00-05:00,154.16348266601562
2022-01-10 00:00:00-05:00,152.76625061035156
2022-01-11 00:00:00-05:00,155.1746063232422
2022-01-12 00:00:00-05:00,154.84368896484375
2022-01-13 00:00:00-05:00,155.183837890625
2022-01-14 00:00:00-05:00,151.67236328125
2022-01-18 00:00:00-05:00,150.56008911132812
2022-01-19 00:00:00-05:00,148.50103759765625
2022-01-20 00:00:00-05:00,146.8004608154297
2022-01-21 00:00:00-05:00,142.2410888671875
2022-01-24 00:00:00-05:00,142.5076446533203
2022-01-25 00:00:00-05:00,141.55166625976562
2022-01-26 00:00:00-05:00,141.09207153320312
2022-01-27 00:00:00-05:00,141.00015258789062
2022-01-28 00:00:00-05:00,142.3238525390625
2022-01-31 00:00:00-05:00,143.58316040039062
2022-02-01 00:00:00-05:00,144.64028930664062
2022-02-02 00:00:00-05:00,144.88844299316406
2022-02-03 00:00:00-05:00,144.07957458496094
2022-02-04 00:00:00-05:00,140.63246154785156
2022-02-07 00:00:00-05:00,140.48538208007812
2022-02-08 00:00:00-05:00,141.79067993164062
2022-02-09 00:00:00-05:00,144.30935668945312
2022-02-10 00:00:00-05:00,141.38621520996094
2022-02-11 00:00:00-05:00,137.79205322265625
2022-02-14 00:00:00-05:00,137.2129364013672
2022-02-15 00:00:00-05:00,139.3914794921875
2022-02-16 00:00:00-05:00,139.60289001464844
2022-02-17 00:00:00-05:00,137.54502868652344
2022-02-18 00:00:00-05:00,138.08950805664062
2022-02-22 00:00:00-05:00,135.3487548828125
2022-02-23 00:00:00-05:00,129.7565460205078
2022-02-24 00:00:00-05:00,127.08038330078125
2022-02-25 00:00:00-05:00,130.19949340820312
2022-02-28 00:00:00-05:00,123.1491928100586
2022-03-01 00:00:00-05:00,116.73565673828125
2022-03-02 00:00:00-05:00,118.83966064453125
2022-03-03 00:00:00-05:00,118.16600799560547
2022-03-04 00:00:00-05:00,114.38249969482422
2022-03-07 00:00:00-05:00,105.66193389892578
2022-03-08 00:00:00-05:00,108.65182495117188
2022-03-09 00:00:00-05:00,112.61068725585938
2022-03-10 00:00:00-05:00,111.83552551269531
2022-03-11 00:00:00-05:00,110.94963836669922
2022-03-14 00:00:00-04:00,112.53685760498047
2022-03-15 00:00:00-04:00,113.84725189208984
2022-03-16 00:00:00-04:00,117.9999008178711
2022-03-17 00:00:00-04:00,118.74737548828125
2022-03-18 00:00:00-04:00,120.8237075805664
2022-03-21 00:00:00-04:00,118.95964050292969
2022-03-22 00:00:00-04:00,120.3900146484375
2022-03-23 00:00:00-04:00,118.80274963378906
2022-03-24 00:00:00-04:00,119.51332092285156
2022-03-25 00:00:00-04:00,119.4671859741211
2022-03-28 00:00:00-04:00,119.55023193359375
2022-03-29 00:00:00-04:00,125.40086364746094
2022-03-30 00:00:00-04:00,122.67855834960938
2022-03-31 00:00:00-04:00,120.95291900634766
2022-04-01 00:00:00-04:00,123.66597747802734
2022-04-04 00:00:00-04:00,123.07535552978516
2022-04-05 00:00:00-04:00,122.1894760131836
2022-04-06 00:00:00-04:00,123.78593444824219
2022-04-07 00:00:00-04:00,123.79515838623047
2022-04-08 00:00:00-04:00,122.30020141601562
2022-04-11 00:00:00-04:00,121.58040618896484
2022-04-12 00:00:00-04:00,118.77507781982422
2022-04-13 00:00:00-04:00,120.50995635986328
2022-04-14 00:00:00-04:00,118.3690414428711
2022-04-18 00:00:00-04:00,116.72643280029297
2022-04-19 00:00:00-04:00,119.63329315185547
2022-04-20 00:00:00-04:00,121.53427124023438
2022-04-21 00:00:00-04:00,122.87236022949219
2022-04-22 00:00:00-04:00,122.59551239013672
2022-04-25 00:00:00-04:00,119.35643005371094
2022-04-26 00:00:00-04:00,116.18197631835938
2022-04-27 00:00:00-04:00,119.60560607910156
2022-04-28 00:00:00-04:00,120.74989318847656
2022-04-29 00:00:00-04:00,118.11065673828125
2022-05-02 00:00:00-04:00,120.87906646728516
2022-05-03 00:00:00-04:00,122.9277114868164
2022-05-04 00:00:00-04:00,126.73892974853516
2022-05-05 00:00:00-04:00,121.41431427001953
2022-05-06 00:00:00-04:00,118.60895538330078
2022-05-09 00:00:00-04:00,117.8673095703125
2022-05-10 00:00:00-04:00,115.92046356201172
2022-05-11 00:00:00-04:00,115.23444366455078
2022-05-12 00:00:00-04:00,114.32592010498047
2022-05-13 00:00:00-04:00,113.43592834472656
2022-05-16 00:00:00-04:00,111.68378448486328
2022-05-17 00:00:00-04:00,115.26225280761719
2022-05-18 00:00:00-04:00,110.84014892578125
2022-05-19 00:00:00-04:00,113.72332763671875
2022-05-20 00:00:00-04:00,110.9513931274414
2022-05-23 00:00:00-04:00,113.85311889648438
2022-05-24 00:00:00-04:00,112.60157775878906
2022-05-25 00:00:00-04:00,114.40936279296875
2022-05-26 00:00:00-04:00,117.08857727050781
2022-05-27 00:00:00-04:00,120.54655456542969
2022-05-31 00:00:00-04:00,117.26472473144531
2022-06-01 00:00:00-04:00,116.22640228271484
2022-06-02 00:00:00-04:00,119.39695739746094
2022-06-03 00:00:00-04:00,116.30982208251953
2022-06-06 00:00:00-04:00,117.85803985595703
2022-06-07 00:00:00-04:00,119.3876953125
2022-06-08 00:00:00-04:00,117.74681854248047
2022-06-09 00:00:00-04:00,114.94705963134766
2022-06-10 00:00:00-04:00,107.44707489013672
2022-06-13 00:00:00-04:00,105.03670501708984
2022-06-14 00:00:00-04:00,103.37725830078125
2022-06-15 00:00:00-04:00,105.33336639404297
2022-06-16 00:00:00-04:00,100.5867691040039
2022-06-17 00:00:00-04:00,101.99591827392578
2022-06-21 00:00:00-04:00,102.53363037109375
2022-06-22 00:00:00-04:00,104.51753997802734
2022-06-23 00:00:00-04:00,106.0193862915039
2022-06-24 00:00:00-04:00,112.18439483642578
2022-06-27 00:00:00-04:00,112.45323944091797
2022-06-28 00:00:00-04:00,110.5712890625
2022-06-29 00:00:00-04:00,108.66152954101562
2022-06-30 00:00:00-04:00,106.0008544921875
2022-07-01 00:00:00-04:00,109.2641372680664
2022-07-05 00:00:00-04:00,110.09850311279297
2022-07-06 00:00:00-04:00,110.69181823730469
2022-07-07 00:00:00-04:00,110.41368865966797
2022-07-08 00:00:00-04:00,109.27339935302734
2022-07-11 00:00:00-04:00,105.84326934814453
2022-07-12 00:00:00-04:00,107.5676040649414
2022-07-13 00:00:00-04:00,107.27094268798828
2022-07-14 00:00:00-04:00,106.46438598632812
2022-07-15 00:00:00-04:00,108.28144836425781
2022-07-18 00:00:00-04:00,106.52928161621094
2022-07-19 00:00:00-04:00,111.03482818603516
2022-07-20 00:00:00-04:00,111.34075927734375
2022-07-21 00:00:00-04:00,113.98290252685547
2022-07-22 00:00:00-04:00,118.4142837524414
2022-07-25 00:00:00-04:00,117.61700439453125
2022-07-26 00:00:00-04:00,117.01441192626953
2022-07-27 00:00:00-04:00,117.67264556884766
2022-07-28 00:00:00-04:00,120.85247802734375
2022-07-29 00:00:00-04:00,119.86050415039062
2022-08-01 00:00:00-04:00,119.87904357910156
2022-08-02 00:00:00-04:00,117.41304016113281
2022-08-03 00:00:00-04:00,118.88709259033203
2022-08-04 00:00:00-04:00,118.78511047363281
2022-08-05 00:00:00-04:00,118.07125854492188
2022-08-08 00:00:00-04:00,118.93344116210938
2022-08-09 00:00:00-04:00,118.48628997802734
2022-08-10 00:00:00-04:00,124.4017562866211
2022-08-11 00:00:00-04:00,124.21543884277344
2022-08-12 00:00:00-04:00,126.27420043945312
2022-08-15 00:00:00-04:00,127.05673217773438
2022-08-16 00:00:00-04:00,127.82062530517578
2022-08-17 00:00:00-04:00,125.00726318359375
2022-08-18 00:00:00-04:00,124.34583282470703
2022-08-19 00:00:00-04:00,122.91124725341797
2022-08-22 00:00:00-04:00,118.52355194091797
2022-08-23 00:00:00-04:00,118.91481018066406
2022-08-24 00:00:00-04:00,119.25016021728516
2022-08-25 00:00:00-04:00,123.1161880493164
2022-08-26 00:00:00-04:00,117.41499328613281
2022-08-29 00:00:00-04:00,117.32183074951172
2022-08-30 00:00:00-04:00,119.03591918945312
2022-08-31 00:00:00-04:00,118.29065704345703
2022-09-01 00:00:00-04:00,116.01762390136719
2022-09-02 00:00:00-04:00,115.29100036621094
2022-09-06 00:00:00-04:00,115.22579193115234
2022-09-07 00:00:00-04:00,119.091796875
2022-09-08 00:00:00-04:00,119.01727294921875
2022-09-09 00:00:00-04:00,119.34333038330078
2022-09-12 00:00:00-04:00,122.57588195800781
2022-09-13 00:00:00-04:00,115.97105407714844
2022-09-14 00:00:00-04:00,111.9373550415039
2022-09-15 00:00:00-04:00,112.19819641113281
2022-09-16 00:00:00-04:00,109.44074249267578
2022-09-19 00:00:00-04:00,111.07099914550781
2022-09-20 00:00:00-04:00,108.67686462402344
2022-09-21 00:00:00-04:00,105.54679107666016
2022-09-22 00:00:00-04:00,104.26122283935547
2022-09-23 00:00:00-04:00,104.63385772705078
2022-09-26 00:00:00-04:00,103.56253814697266
2022-09-27 00:00:00-04:00,103.46009063720703
2022-09-28 00:00:00-04:00,105.54679107666016
2022-09-29 00:00:00-04:00,103.9724349975586
2022-09-30 00:00:00-04:00,103.11538696289062
2022-10-03 00:00:00-04:00,106.37588500976562
2022-10-04 00:00:00-04:00,110.99646759033203
2022-10-05 00:00:00-04:00,112.00257110595703
2022-10-06 00:00:00-04:00,109.67366027832031
2022-10-07 00:00:00-04:00,106.5435791015625
2022-10-10 00:00:00-04:00,103.1712875366211
2022-10-11 00:00:00-04:00,103.18061065673828
2022-10-12 00:00:00-04:00,102.18382263183594
2022-10-13 00:00:00-04:00,104.54070281982422
2022-10-14 00:00:00-04:00,102.78003692626953
2022-10-17 00:00:00-04:00,105.55610656738281
2022-10-18 00:00:00-04:00,108.75138854980469
2022-10-19 00:00:00-04:00,106.79509735107422
2022-10-20 00:00:00-04:00,100.99142456054688
2022-10-21 00:00:00-04:00,104.88536071777344
2022-10-24 00:00:00-04:00,104.28916931152344
2022-10-25 00:00:00-04:00,105.23005676269531
2022-10-26 00:00:00-04:00,105.09963989257812
2022-10-27 00:00:00-04:00,104.67111206054688
2022-10-28 00:00:00-04:00,106.34794616699219
2022-10-31 00:00:00-04:00,106.36658477783203
2022-11-01 00:00:00-04:00,106.19888305664062
2022-11-02 00:00:00-04:00,102.54713439941406
2022-11-03 00:00:00-04:00,102.20244598388672
2022-11-04 00:00:00-04:00,107.55897521972656
2022-11-07 00:00:00-05:00,108.37874603271484
2022-11-08 00:00:00-05:00,108.49054718017578
2022-11-09 00:00:00-05:00,106.93587493896484
2022-11-10 00:00:00-05:00,116.89144897460938
2022-11-11 00:00:00-05:00,121.83644104003906
2022-11-14 00:00:00-05:00,119.84159088134766
2022-11-15 00:00:00-05:00,121.28388977050781
2022-11-16 00:00:00-05:00,120.80624389648438
2022-11-17 00:00:00-05:00,118.62407684326172
2022-11-18 00:00:00-05:00,120.3192367553711
2022-11-21 00:00:00-05:00,120.86243438720703
2022-11-22 00:00:00-05:00,123.61591339111328
2022-11-23 00:00:00-05:00,124.61803436279297
2022-11-25 00:00:00-05:00,124.89898681640625
2022-11-28 00:00:00-05:00,122.03313446044922
2022-11-29 00:00:00-05:00,123.4660873413086
2022-11-30 00:00:00-05:00,126.64098358154297
2022-12-01 00:00:00-05:00,126.39747619628906
2022-12-02 00:00:00-05:00,128.5890350341797
2022-12-05 00:00:00-05:00,126.05094909667969
2022-12-06 00:00:00-05:00,123.66275024414062
2022-12-07 00:00:00-05:00,121.22769165039062
2022-12-08 00:00:00-05:00,122.08934783935547
2022-12-09 00:00:00-05:00,122.13613891601562
2022-12-12 00:00:00-05:00,123.92498016357422
2022-12-13 00:00:00-05:00,125.56398010253906
2022-12-14 00:00:00-05:00,124.34644317626953
2022-12-15 00:00:00-05:00,120.60021209716797
2022-12-16 00:00:00-05:00,118.16515350341797
2022-12-19 00:00:00-05:00,117.659423828125
2022-12-20 00:00:00-05:00,116.84461975097656
2022-12-21 00:00:00-05:00,119.08299255371094
2022-12-22 00:00:00-05:00,117.87483978271484
2022-12-23 00:00:00-05:00,118.6802749633789
2022-12-27 00:00:00-05:00,118.39929962158203
2022-12-28 00:00:00-05:00,116.38570404052734
2022-12-29 00:00:00-05:00,118.38057708740234
2022-12-30 00:00:00-05:00,117.76244354248047
2023-01-03 00:00:00-05:00,118.79264831542969
2023-01-04 00:00:00-05:00,121.72407531738281
2023-01-05 00:00:00-05:00,115.29930877685547
2023-01-06 00:00:00-05:00,120.34733581542969
2023-01-09 00:00:00-05:00,120.69385528564453
2023-01-10 00:00:00-05:00,121.54612731933594
2023-01-11 00:00:00-05:00,123.70956420898438
2023-01-12 00:00:00-05:00,123.26937103271484
2023-01-13 00:00:00-05:00,123.99989318847656
2023-01-17 00:00:00-05:00,122.33281707763672
2023-01-18 00:00:00-05:00,119.67301940917969
2023-01-19 00:00:00-05:00,115.75822448730469
2023-01-20 00:00:00-05:00,122.68871307373047
2023-01-23 00:00:00-05:00,122.03313446044922
2023-01-24 00:00:00-05:00,122.66063690185547
2023-01-25 00:00:00-05:00,120.01953125
2023-01-26 00:00:00-05:00,119.59809875488281
2023-01-27 00:00:00-05:00,119.27030181884766
2023-01-30 00:00:00-05:00,119.55125427246094
2023-01-31 00:00:00-05:00,122.07059478759766
2023-02-01 00:00:00-05:00,123.63463592529297
2023-02-02 00:00:00-05:00,125.9011001586914
2023-02-03 00:00:00-05:00,122.43585205078125
2023-02-06 00:00:00-05:00,121.22769165039062
2023-02-07 00:00:00-05:00,122.94161224365234
2023-02-08 00:00:00-05:00,122.10806274414062
2023-02-09 00:00:00-05:00,120.68450164794922
2023-02-10 00:00:00-05:00,118.22134399414062
2023-02-13 00:00:00-05:00,120.57211303710938
2023-02-14 00:00:00-05:00,121.54612731933594
2023-02-15 00:00:00-05:00,122.7261962890625
2023-02-16 00:00:00-05:00,121.5311050415039
2023-02-17 00:00:00-05:00,122.24627685546875
2023-02-21 00:00:00-05:00,118.75511932373047
2023-02-22 00:00:00-05:00,121.07942199707031
2023-02-23 00:00:00-05:00,120.60891723632812
2023-02-24 00:00:00-05:00,122.05807495117188
2023-02-27 00:00:00-05:00,123.84596252441406
2023-02-28 00:00:00-05:00,124.2694320678711
2023-03-01 00:00:00-05:00,125.37040710449219
2023-03-02 00:00:00-05:00,126.88544464111328
2023-03-03 00:00:00-05:00,129.35086059570312
2023-03-06 00:00:00-05:00,125.75623321533203
2023-03-07 00:00:00-05:00,123.18729400634766
2023-03-08 00:00:00-05:00,123.46959686279297
2023-03-09 00:00:00-05:00,119.88433837890625
2023-03-10 00:00:00-05:00,118.56694030761719
2023-03-13 00:00:00-04:00,117.35304260253906
2023-03-14 00:00:00-04:00,121.54052734375
2023-03-15 00:00:00-04:00,118.03055572509766
2023-03-16 00:00:00-04:00,119.08448791503906
2023-03-17 00:00:00-04:00,115.26399993896484
2023-03-20 00:00:00-04:00,117.91764068603516
2023-03-21 00:00:00-04:00,119.13154602050781
2023-03-22 00:00:00-04:00,116.31792449951172
2023-03-23 00:00:00-04:00,116.22382354736328
2023-03-24 00:00:00-04:00,118.03997039794922
2023-03-27 00:00:00-04:00,118.56694030761719
2023-03-28 00:00:00-04:00,118.77395629882812
2023-03-29 00:00:00-04:00,120.67479705810547
2023-03-30 00:00:00-04:00,122.17098999023438
2023-03-31 00:00:00-04:00,125.69977569580078
2023-04-03 00:00:00-04:00,131.77867126464844
2023-04-04 00:00:00-04:00,130.16014099121094
2023-04-05 00:00:00-04:00,130.7529754638672
2023-04-06 00:00:00-04:00,129.9249267578125
2023-04-10 00:00:00-04:00,130.17893981933594
2023-04-11 00:00:00-04:00,131.08233642578125
2023-04-12 00:00:00-04:00,129.86842346191406
2023-04-13 00:00:00-04:00,131.07290649414062
2023-04-14 00:00:00-04:00,130.25424194335938
2023-04-17 00:00:00-04:00,132.61618041992188
2023-04-18 00:00:00-04:00,133.2560577392578
2023-04-19 00:00:00-04:00,132.2585906982422
2023-04-20 00:00:00-04:00,133.10549926757812
2023-04-21 00:00:00-04:00,133.60421752929688
2023-04-24 00:00:00-04:00,134.5264129638672
2023-04-25 00:00:00-04:00,132.1456298828125
2023-04-26 00:00:00-04:00,129.52023315429688
2023-04-27 00:00:00-04:00,130.73414611816406
2023-04-28 00:00:00-04:00,131.98570251464844
2023-05-01 00:00:00-04:00,131.5151824951172
2023-05-02 00:00:00-04:00,131.3646240234375
2023-05-03 00:00:00-04:00,130.17893981933594
2023-05-04 00:00:00-04:00,127.50653076171875
2023-05-05 00:00:00-04:00,129.8872528076172
2023-05-08 00:00:00-04:00,130.49887084960938
2023-05-09 00:00:00-04:00,129.62928771972656
2023-05-10 00:00:00-04:00,129.36460876464844
2023-05-11 00:00:00-04:00,129.72381591796875
2023-05-12 00:00:00-04:00,130.53671264648438
2023-05-15 00:00:00-04:00,132.92816162109375
2023-05-16 00:00:00-04:00,131.6993408203125
2023-05-17 00:00:00-04:00,134.6106719970703
2023-05-18 00:00:00-04:00,134.76190185546875
2023-05-19 00:00:00-04:00,134.60121154785156
2023-05-22 00:00:00-04:00,132.9754180908203
2023-05-23 00:00:00-04:00,129.38352966308594
2023-05-24 00:00:00-04:00,126.10357666015625
2023-05-25 00:00:00-04:00,125.7538070678711
2023-05-26 00:00:00-04:00,126.4060287475586
2023-05-30 00:00:00-04:00,126.99211120605469
2023-05-31 00:00:00-04:00,124.09965515136719
2023-06-01 00:00:00-04:00,127.58760833740234
2023-06-02 00:00:00-04:00,131.93563842773438
2023-06-05 00:00:00-04:00,130.3665771484375
2023-06-06 00:00:00-04:00,131.59535217285156
2023-06-07 00:00:00-04:00,134.08135986328125
2023-06-08 00:00:00-04:00,133.4385986328125
2023-06-09 00:00:00-04:00,132.02072143554688
2023-06-12 00:00:00-04:00,132.3231964111328
2023-06-13 00:00:00-04:00,133.58038330078125
2023-06-14 00:00:00-04:00,132.99432373046875
2023-06-15 00:00:00-04:00,133.53306579589844
2023-06-16 00:00:00-04:00,135.2439727783203
2023-06-20 00:00:00-04:00,134.26092529296875
2023-06-21 00:00:00-04:00,134.5445098876953
2023-06-22 00:00:00-04:00,133.06048583984375
2023-06-23 00:00:00-04:00,131.283447265625
2023-06-26 00:00:00-04:00,133.35350036621094
2023-06-27 00:00:00-04:00,136.52001953125
2023-06-28 00:00:00-04:00,135.45191955566406
2023-06-29 00:00:00-04:00,137.40853881835938
2023-06-30 00:00:00-04:00,140.17808532714844
2023-07-03 00:00:00-04:00,140.9059295654297
2023-07-05 00:00:00-04:00,138.1741943359375
2023-07-06 00:00:00-04:00,137.27622985839844
2023-07-07 00:00:00-04:00,138.7318878173828
2023-07-10 00:00:00-04:00,139.79998779296875
2023-07-11 00:00:00-04:00,142.34266662597656
2023-07-12 00:00:00-04:00,143.363525390625
2023-07-13 00:00:00-04:00,143.21229553222656
2023-07-14 00:00:00-04:00,141.5392303466797
2023-07-17 00:00:00-04:00,142.91928100585938
2023-07-18 00:00:00-04:00,143.07997131347656
2023-07-19 00:00:00-04:00,142.03073120117188
2023-07-20 00:00:00-04:00,141.5203094482422
2023-07-21 00:00:00-04:00,141.17059326171875
2023-07-24 00:00:00-04:00,137.8811798095703
2023-07-25 00:00:00-04:00,138.95872497558594
2023-07-26 00:00:00-04:00,138.1741943359375
2023-07-27 00:00:00-04:00,136.86978149414062
2023-07-28 00:00:00-04:00,137.44638061523438
2023-07-31 00:00:00-04:00,136.0190887451172
2023-08-01 00:00:00-04:00,137.57870483398438
2023-08-02 00:00:00-04:00,134.00572204589844
2023-08-03 00:00:00-04:00,132.59732055664062
2023-08-04 00:00:00-04:00,132.8714599609375
2023-08-07 00:00:00-04:00,135.41412353515625
2023-08-08 00:00:00-04:00,135.4802703857422
2023-08-09 00:00:00-04:00,132.40377807617188
2023-08-10 00:00:00-04:00,132.41326904296875
2023-08-11 00:00:00-04:00,129.7450714111328
2023-08-14 00:00:00-04:00,132.58419799804688
2023-08-15 00:00:00-04:00,131.86251831054688
2023-08-16 00:00:00-04:00,130.694580078125
2023-08-17 00:00:00-04:00,131.10293579101562
2023-08-18 00:00:00-04:00,132.48922729492188
2023-08-21 00:00:00-04:00,131.60617065429688
2023-08-22 00:00:00-04:00,131.37828063964844
2023-08-23 00:00:00-04:00,130.89402770996094
2023-08-24 00:00:00-04:00,130.3242950439453
2023-08-25 00:00:00-04:00,131.38775634765625
2023-08-28 00:00:00-04:00,131.82456970214844
2023-08-29 00:00:00-04:00,133.84707641601562
2023-08-30 00:00:00-04:00,134.87257385253906
2023-08-31 00:00:00-04:00,134.606689453125
2023-09-01 00:00:00-04:00,134.84408569335938
2023-09-05 00:00:00-04:00,129.58363342285156
2023-09-06 00:00:00-04:00,130.1343536376953
2023-09-07 00:00:00-04:00,129.3082733154297
2023-09-08 00:00:00-04:00,128.8524932861328
2023-09-11 00:00:00-04:00,129.4697265625
2023-09-12 00:00:00-04:00,127.08634185791016
2023-09-13 00:00:00-04:00,126.2887191772461
2023-09-14 00:00:00-04:00,127.60860443115234
2023-09-15 00:00:00-04:00,127.04837036132812
2023-09-18 00:00:00-04:00,125.80448913574219
2023-09-19 00:00:00-04:00,125.53861236572266
2023-09-20 00:00:00-04:00,124.19976043701172
2023-09-21 00:00:00-04:00,121.81640625
2023-09-22 00:00:00-04:00,123.56356811523438
2023-09-25 00:00:00-04:00,125.38668823242188
2023-09-26 00:00:00-04:00,122.1202621459961
2023-09-27 00:00:00-04:00,121.56953430175781
2023-09-28 00:00:00-04:00,123.97187042236328
2023-09-29 00:00:00-04:00,123.2502212524414
2023-10-02 00:00:00-04:00,122.8418960571289
2023-10-03 00:00:00-04:00,122.15823364257812
2023-10-04 00:00:00-04:00,126.49763488769531
2023-10-05 00:00:00-04:00,124.7030029296875
2023-10-06 00:00:00-04:00,126.41216278076172
2023-10-09 00:00:00-04:00,122.26268005371094
2023-10-10 00:00:00-04:00,123.70599365234375
2023-10-11 00:00:00-04:00,125.83294677734375
2023-10-12 00:00:00-04:00,123.4970932006836
2023-10-13 00:00:00-04:00,121.97783660888672
2023-10-16 00:00:00-04:00,123.77246856689453
2023-10-17 00:00:00-04:00,124.81696319580078
2023-10-18 00:00:00-04:00,121.33213806152344
2023-10-19 00:00:00-04:00,118.06571960449219
2023-10-20 00:00:00-04:00,118.42655944824219
2023-10-23 00:00:00-04:00,117.44851684570312
2023-10-24 00:00:00-04:00,116.65091705322266
2023-10-25 00:00:00-04:00,115.35003662109375
2023-10-26 00:00:00-04:00,115.85330200195312
2023-10-27 00:00:00-04:00,114.62841033935547
2023-10-30 00:00:00-04:00,115.67288970947266
2023-10-31 00:00:00-04:00,116.57494354248047
2023-11-01 00:00:00-04:00,116.76485443115234
2023-11-02 00:00:00-04:00,118.61647033691406
2023-11-03 00:00:00-04:00,121.83539581298828
2023-11-06 00:00:00-05:00,121.30364227294922
2023-11-07 00:00:00-05:00,121.36062622070312
2023-11-08 00:00:00-05:00,123.01282501220703
2023-11-09 00:00:00-05:00,121.5527114868164
2023-11-10 00:00:00-05:00,122.92693328857422
2023-11-13 00:00:00-05:00,123.37548065185547
2023-11-14 00:00:00-05:00,127.41226196289062
2023-11-15 00:00:00-05:00,127.51725006103516
2023-11-16 00:00:00-05:00,128.98692321777344
2023-11-17 00:00:00-05:00,129.6645050048828
2023-11-20 00:00:00-05:00,129.36863708496094
2023-11-21 00:00:00-05:00,130.34205627441406
2023-11-22 00:00:00-05:00,130.39932250976562
2023-11-24 00:00:00-05:00,130.2179718017578
2023-11-27 00:00:00-05:00,131.0196075439453
2023-11-28 00:00:00-05:00,131.77354431152344
2023-11-29 00:00:00-05:00,133.17642211914062
2023-11-30 00:00:00-05:00,135.5049591064453
2023-12-01 00:00:00-05:00,137.070068359375
2023-12-04 00:00:00-05:00,136.6119842529297
2023-12-05 00:00:00-05:00,136.1348114013672
2023-12-06 00:00:00-05:00,136.1825408935547
2023-12-07 00:00:00-05:00,138.3583984375
2023-12-08 00:00:00-05:00,137.40406799316406
2023-12-11 00:00:00-05:00,139.17913818359375
2023-12-12 00:00:00-05:00,138.7305908203125
2023-12-13 00:00:00-05:00,140.73468017578125
2023-12-14 00:00:00-05:00,142.3379669189453
2023-12-15 00:00:00-05:00,141.88941955566406
2023-12-18 00:00:00-05:00,141.9562225341797
2023-12-19 00:00:00-05:00,142.6815185546875
2023-12-20 00:00:00-05:00,139.63722229003906
2023-12-21 00:00:00-05:00,141.0018768310547
2023-12-22 00:00:00-05:00,141.9562225341797
2023-12-26 00:00:00-05:00,142.85328674316406
2023-12-27 00:00:00-05:00,143.30181884765625
2023-12-28 00:00:00-05:00,143.51177978515625
2023-12-29 00:00:00-05:00,142.71971130371094
2024-01-02 00:00:00-05:00,140.55335998535156
2024-01-03 00:00:00-05:00,138.96917724609375
2024-01-04 00:00:00-05:00,138.2916259765625
2024-01-05 00:00:00-05:00,139.2745819091797
2024-01-08 00:00:00-05:00,140.65835571289062
2024-01-09 00:00:00-05:00,139.55133056640625
2024-01-10 00:00:00-05:00,140.56288146972656
2024-01-11 00:00:00-05:00,139.70401000976562
2024-01-12 00:00:00-05:00,138.90237426757812
2024-01-16 00:00:00-05:00,137.19412231445312
2024-01-17 00:00:00-05:00,136.54518127441406
2024-01-18 00:00:00-05:00,138.32977294921875
2024-01-19 00:00:00-05:00,134.93238830566406
2024-01-22 00:00:00-05:00,135.64813232421875
2024-01-23 00:00:00-05:00,135.93441772460938
2024-01-24 00:00:00-05:00,134.58880615234375
2024-01-25 00:00:00-05:00,136.2684326171875
2024-01-26 00:00:00-05:00,136.5070343017578
2024-01-29 00:00:00-05:00,136.3352508544922
2024-01-30 00:00:00-05:00,136.53562927246094
2024-01-31 00:00:00-05:00,134.59837341308594
2024-02-01 00:00:00-05:00,135.037353515625
2024-02-02 00:00:00-05:00,133.69174194335938
2024-02-05 00:00:00-05:00,131.2868194580078
2024-02-06 00:00:00-05:00,133.50088500976562
2024-02-07 00:00:00-05:00,133.004638671875
2024-02-08 00:00:00-05:00,132.29843139648438
2024-02-09 00:00:00-05:00,133.20501708984375
2024-02-12 00:00:00-05:00,134.46473693847656
2024-02-13 00:00:00-05:00,132.40341186523438
2024-02-14 00:00:00-05:00,133.70130920410156
2024-02-15 00:00:00-05:00,136.54885864257812
2024-02-16 00:00:00-05:00,136.0598907470703
2024-02-20 00:00:00-05:00,135.3408203125
2024-02-21 00:00:00-05:00,136.7693634033203
2024-02-22 00:00:00-05:00,137.4692840576172
2024-02-23 00:00:00-05:00,138.41845703125
2024-02-26 00:00:00-05:00,136.47216796875
2024-02-27 00:00:00-05:00,135.10110473632812
2024-02-28 00:00:00-05:00,134.6888427734375
2024-02-29 00:00:00-05:00,135.76268005371094
2024-03-01 00:00:00-05:00,133.76840209960938
2024-03-04 00:00:00-05:00,133.4807586669922
2024-03-05 00:00:00-05:00,133.06849670410156
2024-03-06 00:00:00-05:00,134.34364318847656
2024-03-07 00:00:00-05:00,135.0915069580078
2024-03-08 00:00:00-05:00,134.9285125732422
2024-03-11 00:00:00-04:00,136.6255645751953
2024-03-12 00:00:00-04:00,135.484619140625
2024-03-13 00:00:00-04:00,136.03109741210938
2024-03-14 00:00:00-04:00,133.23150634765625
2024-03-15 00:00:00-04:00,132.1768341064453
2024-03-18 00:00:00-04:00,133.3369598388672
2024-03-19 00:00:00-04:00,135.76268005371094
2024-03-20 00:00:00-04:00,136.3954620361328
2024-03-21 00:00:00-04:00,137.68980407714844
2024-03-22 00:00:00-04:00,136.68310546875
2024-03-25 00:00:00-04:00,135.3312225341797
2024-03-26 00:00:00-04:00,135.97360229492188
2024-03-27 00:00:00-04:00,138.58145141601562
2024-03-28 00:00:00-04:00,138.92662048339844
2024-04-01 00:00:00-04:00,137.4692840576172
2024-04-02 00:00:00-04:00,135.8201904296875
2024-04-03 00:00:00-04:00,135.8872833251953
2024-04-04 00:00:00-04:00,134.00808715820312
2024-04-05 00:00:00-04:00,133.30819702148438
2024-04-08 00:00:00-04:00,134.142333984375
2024-04-09 00:00:00-04:00,136.33792114257812
2024-04-10 00:00:00-04:00,132.0522003173828
2024-04-11 00:00:00-04:00,131.92758178710938
2024-04-12 00:00:00-04:00,128.8882293701172
2024-04-15 00:00:00-04:00,129.45391845703125
2024-04-16 00:00:00-04:00,128.0061492919922
2024-04-17 00:00:00-04:00,129.39639282226562
2024-04-18 00:00:00-04:00,129.54019165039062
2024-04-19 00:00:00-04:00,125.50377655029297
2024-04-22 00:00:00-04:00,125.75304412841797
2024-04-23 00:00:00-04:00,125.0531234741211
2024-04-24 00:00:00-04:00,125.13943481445312
2024-04-25 00:00:00-04:00,123.90260314941406
2024-04-26 00:00:00-04:00,124.79426574707031
2024-04-29 00:00:00-04:00,125.35037231445312
2024-04-30 00:00:00-04:00,123.68207550048828
2024-05-01 00:00:00-04:00,125.55168151855469
2024-05-02 00:00:00-04:00,126.79810333251953
2024-05-03 00:00:00-04:00,127.44047546386719
2024-05-06 00:00:00-04:00,127.5555191040039
2024-05-07 00:00:00-04:00,128.67730712890625
2024-05-08 00:00:00-04:00,127.92945098876953
2024-05-09 00:00:00-04:00,129.442138671875
2024-05-10 00:00:00-04:00,130.3863067626953
2024-05-13 00:00:00-04:00,130.78134155273438
2024-05-14 00:00:00-04:00,130.4344940185547
2024-05-15 00:00:00-04:00,130.10690307617188
2024-05-16 00:00:00-04:00,129.8563995361328
2024-05-17 00:00:00-04:00,129.52880859375
2024-05-20 00:00:00-04:00,128.88330078125
2024-05-21 00:00:00-04:00,128.84475708007812
2024-05-22 00:00:00-04:00,129.77932739257812
2024-05-23 00:00:00-04:00,126.23377227783203
2024-05-24 00:00:00-04:00,126.61914825439453
2024-05-28 00:00:00-04:00,124.86563873291016
2024-05-29 00:00:00-04:00,122.50513458251953
2024-05-30 00:00:00-04:00,124.40316772460938
2024-05-31 00:00:00-04:00,126.60951232910156
2024-06-03 00:00:00-04:00,126.85039520263672
2024-06-04 00:00:00-04:00,126.86964416503906
2024-06-05 00:00:00-04:00,128.34376525878906
2024-06-06 00:00:00-04:00,125.84835052490234
2024-06-07 00:00:00-04:00,123.71912384033203
2024-06-10 00:00:00-04:00,123.76727294921875
2024-06-11 00:00:00-04:00,124.83674621582031
2024-06-12 00:00:00-04:00,125.64603424072266
2024-06-13 00:00:00-04:00,125.0486831665039
2024-06-14 00:00:00-04:00,122.66891479492188
2024-06-17 00:00:00-04:00,123.58422088623047
2024-06-18 00:00:00-04:00,123.18920135498047
2024-06-20 00:00:00-04:00,123.76727294921875
2024-06-21 00:00:00-04:00,123.89253234863281
2024-06-24 00:00:00-04:00,123.46859741210938
2024-06-25 00:00:00-04:00,120.64563751220703
2024-06-26 00:00:00-04:00,120.67454528808594
2024-06-27 00:00:00-04:00,120.33733367919922
2024-06-28 00:00:00-04:00,121.29115295410156
2024-07-01 00:00:00-04:00,119.45093536376953
2024-07-02 00:00:00-04:00,120.31806945800781
2024-07-03 00:00:00-04:00,120.30842590332031
2024-07-05 00:00:00-04:00,120.6552734375
2024-07-08 00:00:00-04:00,122.36062622070312
2024-07-09 00:00:00-04:00,120.6841812133789
2024-07-10 00:00:00-04:00,122.01376342773438
2024-07-11 00:00:00-04:00,124.97162628173828
2024-07-12 00:00:00-04:00,125.84835052490234
2024-07-15 00:00:00-04:00,126.098876953125
2024-07-16 00:00:00-04:00,128.363037109375
2024-07-17 00:00:00-04:00,128.87367248535156
2024-07-18 00:00:00-04:00,126.8985595703125
2024-07-19 00:00:00-04:00,123.36261749267578
2024-07-22 00:00:00-04:00,123.6805648803711
2024-07-23 00:00:00-04:00,122.0908432006836
2024-07-24 00:00:00-04:00,120.66490936279297
2024-07-25 00:00:00-04:00,121.33934020996094
2024-07-26 00:00:00-04:00,122.89051818847656
2024-07-29 00:00:00-04:00,123.07357788085938
2024-07-30 00:00:00-04:00,122.56294250488281
2024-07-31 00:00:00-04:00,122.34134674072266
2024-08-01 00:00:00-04:00,121.28153228759766
2024-08-02 00:00:00-04:00,118.9499282836914
2024-08-05 00:00:00-04:00,115.02861022949219
2024-08-06 00:00:00-04:00,114.7106704711914
2024-08-07 00:00:00-04:00,113.9977035522461
2024-08-08 00:00:00-04:00,114.87445831298828
2024-08-09 00:00:00-04:00,114.88409423828125
2024-08-12 00:00:00-04:00,114.72904968261719
2024-08-13 00:00:00-04:00,115.56238555908203
2024-08-14 00:00:00-04:00,116.15348052978516
2024-08-15 00:00:00-04:00,118.28527069091797
2024-08-16 00:00:00-04:00,118.60502624511719
2024-08-19 00:00:00-04:00,119.4286880493164
2024-08-20 00:00:00-04:00,119.1864242553711
2024-08-21 00:00:00-04:00,121.07597351074219
2024-08-22 00:00:00-04:00,121.27946472167969
2024-08-23 00:00:00-04:00,122.60697937011719
2024-08-26 00:00:00-04:00,122.96552276611328
2024-08-27 00:00:00-04:00,123.16900634765625
2024-08-28 00:00:00-04:00,123.68257141113281
2024-08-29 00:00:00-04:00,124.8453598022461
2024-08-30 00:00:00-04:00,125.70777130126953
2024-09-03 00:00:00-04:00,123.98294830322266
2024-09-04 00:00:00-04:00,122.74263763427734
2024-09-05 00:00:00-04:00,121.39574432373047
2024-09-06 00:00:00-04:00,120.9112319946289
2024-09-09 00:00:00-04:00,122.22908020019531
2024-09-10 00:00:00-04:00,121.98682403564453
2024-09-11 00:00:00-04:00,121.60891723632812
2024-09-12 00:00:00-04:00,121.5992202758789
2024-09-13 00:00:00-04:00,123.04303741455078
2024-09-16 00:00:00-04:00,123.3918685913086
2024-09-17 00:00:00-04:00,123.50814819335938
2024-09-18 00:00:00-04:00,123.50814819335938
2024-09-19 00:00:00-04:00,125.22327423095703
2024-09-20 00:00:00-04:00,122.57791137695312
2024-09-23 00:00:00-04:00,123.35311889648438
2024-09-24 00:00:00-04:00,124.34149169921875
2024-09-25 00:00:00-04:00,123.8763656616211
2024-09-26 00:00:00-04:00,130.37832641601562
2024-09-27 00:00:00-04:00,130.3880157470703
2024-09-30 00:00:00-04:00,128.35311889648438
2024-10-01 00:00:00-04:00,126.68647003173828
2024-10-02 00:00:00-04:00,126.62831115722656
2024-10-03 00:00:00-04:00,123.8763656616211
2024-10-04 00:00:00-04:00,124.58374786376953
2024-10-07 00:00:00-04:00,124.7581558227539
2024-10-08 00:00:00-04:00,123.28528594970703
2024-10-09 00:00:00-04:00,123.48876953125
2024-10-10 00:00:00-04:00,123.40156555175781
2024-10-11 00:00:00-04:00,124.27365112304688
2024-10-14 00:00:00-04:00,124.51592254638672
2024-10-15 00:00:00-04:00,125.84341430664062
2024-10-16 00:00:00-04:00,126.31824493408203
2024-10-17 00:00:00-04:00,127.2872314453125
2024-10-18 00:00:00-04:00,126.87055969238281
2024-10-21 00:00:00-04:00,124.82598876953125
2024-10-22 00:00:00-04:00,122.6748046875
2024-10-23 00:00:00-04:00,122.36473846435547
2024-10-24 00:00:00-04:00,123.29496765136719
2024-10-25 00:00:00-04:00,122.52946472167969
2024-10-28 00:00:00-04:00,123.43062591552734
2024-10-29 00:00:00-04:00,122.5972900390625
2024-10-30 00:00:00-04:00,121.77365112304688
2024-10-31 00:00:00-04:00,120.64961242675781
2024-11-01 00:00:00-04:00,120.55271911621094
2024-11-04 00:00:00-05:00,120.98875427246094
2024-11-05 00:00:00-05:00,120.78527069091797
2024-11-06 00:00:00-05:00,121.8608627319336
2024-11-07 00:00:00-05:00,122.07404327392578
2024-11-08 00:00:00-05:00,121.62830352783203
2024-11-11 00:00:00-05:00,122.05465698242188
2024-11-12 00:00:00-05:00,118.61553192138672
2024-11-13 00:00:00-05:00,120.24253845214844
2024-11-14 00:00:00-05:00,120.33997344970703
2024-11-15 00:00:00-05:00,119.37545013427734
2024-11-18 00:00:00-05:00,120.24253845214844
2024-11-19 00:00:00-05:00,117.9627914428711
2024-11-20 00:00:00-05:00,118.1673812866211
2024-11-21 00:00:00-05:00,119.52159118652344
2024-11-22 00:00:00-05:00,119.49237060546875
2024-11-25 00:00:00-05:00,122.55152130126953
2024-11-26 00:00:00-05:00,120.1743392944336
2024-11-27 00:00:00-05:00,120.27175903320312
2024-11-29 00:00:00-05:00,121.16808319091797
2024-12-02 00:00:00-05:00,122.72689056396484
2024-12-03 00:00:00-05:00,122.93148803710938
2024-12-04 00:00:00-05:00,123.56475067138672
2024-12-05 00:00:00-05:00,122.26898956298828
2024-12-06 00:00:00-05:00,122.3371810913086
2024-12-09 00:00:00-05:00,123.5939712524414
2024-12-10 00:00:00-05:00,122.19104766845703
2024-12-11 00:00:00-05:00,119.43390655517578
2024-12-12 00:00:00-05:00,120.82709503173828
2024-12-13 00:00:00-05:00,120.97322845458984
2024-12-16 00:00:00-05:00,119.48262023925781
2024-12-17 00:00:00-05:00,118.91754913330078
2024-12-18 00:00:00-05:00,118.12840270996094
2024-12-19 00:00:00-05:00,116.44293975830078
2024-12-20 00:00:00-05:00,117.11518096923828
2024-12-23 00:00:00-05:00,117.05672454833984
2024-12-24 00:00:00-05:00,117.8653564453125
2024-12-26 00:00:00-05:00,118.10892486572266
2024-12-27 00:00:00-05:00,117.28079986572266
2024-12-30 00:00:00-05:00,116.02400970458984
2024-12-31 00:00:00-05:00,116.37474822998047
2025-01-02 00:00:00-05:00,112.44850158691406
2025-01-03 00:00:00-05:00,111.32810974121094
2025-01-06 00:00:00-05:00,112.10751342773438
2025-01-07 00:00:00-05:00,112.8771743774414
2025-01-08 00:00:00-05:00,112.71155548095703
2025-01-10 00:00:00-05:00,110.26617431640625
2025-01-13 00:00:00-05:00,111.84446716308594
2025-01-14 00:00:00-05:00,113.5299301147461
2025-01-15 00:00:00-05:00,114.54314422607422
2025-01-16 00:00:00-05:00,116.52088928222656
2025-01-17 00:00:00-05:00,117.1444091796875
2025-01-21 00:00:00-05:00,120.19383239746094
2025-01-22 00:00:00-05:00,119.70670318603516
2025-01-23 00:00:00-05:00,120.3010025024414
2025-01-24 00:00:00-05:00,119.61901092529297
2025-01-27 00:00:00-05:00,121.09014129638672
2025-01-28 00:00:00-05:00,119.84310150146484
2025-01-29 00:00:00-05:00,119.22930908203125
2025-01-30 00:00:00-05:00,119.58979034423828
2025-01-31 00:00:00-05:00,112.40953063964844
2025-02-03 00:00:00-05:00,109.1068115234375
2025-02-04 00:00:00-05:00,108.40534210205078
2025-02-05 00:00:00-05:00,109.67186737060547
2025-02-06 00:00:00-05:00,112.9161376953125
2025-02-07 00:00:00-05:00,111.88343048095703
2025-02-10 00:00:00-05:00,111.18197631835938
2025-02-11 00:00:00-05:00,111.95162963867188
2025-02-12 00:00:00-05:00,111.84446716308594
2025-02-13 00:00:00-05:00,114.8841323852539
2025-02-14 00:00:00-05:00,114.71851348876953
2025-02-18 00:00:00-05:00,116.18963623046875
2025-02-19 00:00:00-05:00,113.78323364257812
2025-02-20 00:00:00-05:00,114.85491180419922
2025-02-21 00:00:00-05:00,112.49333953857422
2025-02-24 00:00:00-05:00,111.24884796142578
2025-02-25 00:00:00-05:00,112.09156799316406
2025-02-26 00:00:00-05:00,112.728515625
2025-02-27 00:00:00-05:00,111.39583587646484
2025-02-28 00:00:00-05:00,110.94507598876953
2025-03-03 00:00:00-05:00,109.47522735595703
2025-03-04 00:00:00-05:00,107.09403991699219
2025-03-05 00:00:00-05:00,111.79759216308594
2025-03-06 00:00:00-05:00,113.05188751220703
2025-03-07 00:00:00-05:00,113.15966796875
2025-03-10 00:00:00-04:00,112.38554382324219
2025-03-11 00:00:00-04:00,111.1508560180664
2025-03-12 00:00:00-04:00,108.75009155273438
2025-03-13 00:00:00-04:00,109.1224594116211
2025-03-14 00:00:00-04:00,111.19005584716797
2025-03-17 00:00:00-04:00,111.55261993408203
2025-03-18 00:00:00-04:00,111.28804779052734
2025-03-19 00:00:00-04:00,110.82748413085938
2025-03-20 00:00:00-04:00,109.02445983886719
2025-03-21 00:00:00-04:00,108.50511169433594
2025-03-24 00:00:00-04:00,110.70989990234375
2025-03-25 00:00:00-04:00,109.49481201171875
2025-03-26 00:00:00-04:00,109.68099975585938
2025-03-27 00:00:00-04:00,106.18273162841797
2025-03-28 00:00:00-04:00,105.28121948242188
2025-03-31 00:00:00-04:00,107.15283966064453
2025-04-01 00:00:00-04:00,106.76087188720703
2025-04-02 00:00:00-04:00,107.89756774902344
2025-04-03 00:00:00-04:00,101.9005355834961
2025-04-04 00:00:00-04:00,97.15778350830078
2025-04-07 00:00:00-04:00,94.9823989868164
2025-04-08 00:00:00-04:00,89.81828308105469
2025-04-09 00:00:00-04:00,101.03821563720703
2025-04-10 00:00:00-04:00,96.55023956298828
2025-04-11 00:00:00-04:00,98.70603942871094
2025-04-14 00:00:00-04:00,99.44097137451172
2025-04-15 00:00:00-04:00,97.60853576660156
2025-04-16 00:00:00-04:00,96.44245147705078
2025-04-17 00:00:00-04:00,98.03971099853516
2025-04-21 00:00:00-04:00,97.40275573730469
2025-04-22 00:00:00-04:00,99.73493957519531
2025-04-23 00:00:00-04:00,99.78394317626953
2025-04-24 00:00:00-04:00,102.03771209716797
2025-04-25 00:00:00-04:00,100.50907135009766
2025-04-28 00:00:00-04:00,100.89122772216797
2025-04-29 00:00:00-04:00,101.72415161132812
2025-04-30 00:00:00-04:00,106.67268371582031
2025-05-01 00:00:00-04:00,106.58448791503906
2025-05-02 00:00:00-04:00,108.26992797851562
2025-05-05 00:00:00-04:00,108.00535583496094
2025-05-06 00:00:00-04:00,106.37870788574219
2025-05-07 00:00:00-04:00,104.61487579345703
2025-05-08 00:00:00-04:00,106.4277114868164
2025-05-09 00:00:00-04:00,107.24103546142578
2025-05-12 00:00:00-04:00,112.61490631103516
2025-05-13 00:00:00-04:00,111.7570571899414
2025-05-14 00:00:00-04:00,110.11038208007812
2025-05-15 00:00:00-04:00,111.48097229003906
2025-05-16 00:00:00-04:00,112.48673248291016
2025-05-19 00:00:00-04:00,112.66421508789062
2025-05-20 00:00:00-04:00,112.20077514648438
2025-05-21 00:00:00-04:00,109.68639373779297
2025-05-22 00:00:00-04:00,109.65680694580078
2025-05-23 00:00:00-04:00,108.54258728027344
2025-05-27 00:00:00-04:00,110.69214630126953
2025-05-28 00:00:00-04:00,109.00603485107422
2025-05-29 00:00:00-04:00,109.75540924072266
2025-05-30 00:00:00-04:00,109.2525405883789
2025-06-02 00:00:00-04:00,108.8088150024414
2025-06-03 00:00:00-04:00,109.8145751953125
2025-06-04 00:00:00-04:00,110.36676025390625
2025-06-05 00:00:00-04:00,109.70610809326172
2025-06-06 00:00:00-04:00,111.02739715576172
2025-06-09 00:00:00-04:00,111.87538146972656
2025-06-10 00:00:00-04:00,113.43331909179688
2025-06-11 00:00:00-04:00,111.43167114257812
2025-06-12 00:00:00-04:00,110.4653549194336
2025-06-13 00:00:00-04:00,104.81538391113281
2025-06-16 00:00:00-04:00,107.51712036132812
2025-06-17 00:00:00-04:00,106.0380630493164
2025-06-18 00:00:00-04:00,106.72828674316406
2025-06-20 00:00:00-04:00,107.15228271484375
2025-06-23 00:00:00-04:00,110.76116943359375
2025-06-24 00:00:00-04:00,112.28951263427734
2025-06-25 00:00:00-04:00,111.67818450927734
2025-06-26 00:00:00-04:00,112.19091796875
2025-06-27 00:00:00-04:00,112.55574798583984
2025-06-30 00:00:00-04:00,112.16133880615234
2025-07-01 00:00:00-04:00,114.78418731689453
2025-07-02 00:00:00-04:00,116.93373107910156
2025-07-03 00:00:00-04:00,116.62806701660156
2025-07-07 00:00:00-04:00,113.84745788574219
2025-07-08 00:00:00-04:00,115.77021789550781
2025-07-09 00:00:00-04:00,116.5393295288086
2025-07-10 00:00:00-04:00,117.40703582763672
2025-07-11 00:00:00-04:00,115.66175079345703
2025-07-14 00:00:00-04:00,114.73487854003906
2025-07-15 00:00:00-04:00,112.69379425048828
2025-07-16 00:00:00-04:00,113.95591735839844
2025-07-17 00:00:00-04:00,114.39962768554688
2025-07-18 00:00:00-04:00,112.9304428100586
2025-07-21 00:00:00-04:00,112.92057800292969
2025-07-22 00:00:00-04:00,113.78829193115234
2025-07-23 00:00:00-04:00,114.98139190673828
2025-07-24 00:00:00-04:00,113.4135971069336
2025-07-25 00:00:00-04:00,114.33060455322266
2025-07-28 00:00:00-04:00,112.37826538085938
2025-07-29 00:00:00-04:00,110.66255950927734
2025-07-30 00:00:00-04:00,104.76608276367188
2025-07-31 00:00:00-04:00,104.02655792236328
2025-08-01 00:00:00-04:00,102.98136138916016
2025-08-04 00:00:00-04:00,103.53353881835938
2025-08-05 00:00:00-04:00,104.53929138183594
2025-08-06 00:00:00-04:00,104.20404052734375
2025-08-07 00:00:00-04:00,104.63790130615234
2025-08-08 00:00:00-04:00,105.45630645751953
2025-08-11 00:00:00-04:00,105.73423767089844
2025-08-12 00:00:00-04:00,107.94779205322266
2025-08-13 00:00:00-04:00,111.78924560546875
2025-08-14 00:00:00-04:00,111.12418365478516
2025-08-15 00:00:00-04:00,110.97529602050781
2025-08-18 00:00:00-04:00,110.15142059326172
2025-08-19 00:00:00-04:00,112.02747344970703
2025-08-20 00:00:00-04:00,111.2333755493164
2025-08-21 00:00:00-04:00,110.74699401855469
2025-08-22 00:00:00-04:00,113.42707061767578
2025-08-25 00:00:00-04:00,111.31278991699219
2025-08-26 00:00:00-04:00,111.73961639404297
2025-08-27 00:00:00-04:00,111.3028564453125
2025-08-28 00:00:00-04:00,110.39957427978516
2025-08-29 00:00:00-04:00,110.40950012207031
2025-09-02 00:00:00-04:00,108.7815933227539
2025-09-03 00:00:00-04:00,108.38455200195312
2025-09-04 00:00:00-04:00,108.83123016357422
2025-09-05 00:00:00-04:00,109.1687240600586
2025-09-08 00:00:00-04:00,110.70728302001953
2025-09-09 00:00:00-04:00,108.5731430053711
2025-09-10 00:00:00-04:00,107.97756958007812
2025-09-11 00:00:00-04:00,111.00507354736328
2025-09-12 00:00:00-04:00,109.90325927734375
2025-09-15 00:00:00-04:00,108.64262390136719
2025-09-16 00:00:00-04:00,107.5606689453125
2025-09-17 00:00:00-04:00,107.3025894165039
2025-09-18 00:00:00-04:00,108.2157974243164
2025-09-19 00:00:00-04:00,108.61284637451172
2025-09-22 00:00:00-04:00,108.68233489990234
2025-09-23 00:00:00-04:00,105.45630645751953
2025-09-24 00:00:00-04:00,104.70191955566406
2025-09-25 00:00:00-04:00,103.1534194946289
2025-09-26 00:00:00-04:00,102.88541412353516
2025-09-29 00:00:00-04:00,103.25267791748047
2025-09-30 00:00:00-04:00,104.33464813232422
2025-10-01 00:00:00-04:00,103.3221664428711
2025-10-02 00:00:00-04:00,103.74899291992188
2025-10-03 00:00:00-04:00,103.65966033935547
2025-10-06 00:00:00-04:00,102.7563705444336
2025-10-07 00:00:00-04:00,100.94979858398438
2025-10-08 00:00:00-04:00,100.84060668945312
2025-10-09 00:00:00-04:00,98.86528778076172
2025-10-10 00:00:00-04:00,97.75355529785156
2025-10-13 00:00:00-04:00,98.13075256347656
2025-10-14 00:00:00-04:00,99.75865173339844
2025-10-15 00:00:00-04:00,98.8255844116211
2025-10-16 00:00:00-04:00,100.264892578125
2025-10-17 00:00:00-04:00,100.82075500488281
2025-10-20 00:00:00-04:00,101.41632843017578
2025-10-21 00:00:00-04:00,103.61002349853516
2025-10-22 00:00:00-04:00,101.40641021728516
2025-10-23 00:00:00-04:00,102.73651885986328
2025-10-24 00:00:00-04:00,102.73651885986328
2025-10-27 00:00:00-04:00,104.67213439941406
2025-10-28 00:00:00-04:00,104.53316497802734
2025-10-29 00:00:00-04:00,98.39875030517578
2025-10-30 00:00:00-04:00,96.73114776611328
2025-10-31 00:00:00-04:00,97.02893829345703
2025-11-03 00:00:00-05:00,94.25951385498047
2025-11-04 00:00:00-05:00,94.21981048583984
2025-11-05 00:00:00-05:00,95.54000091552734
2025-11-06 00:00:00-05:00,94.46796417236328
2025-11-07 00:00:00-05:00,95.54000091552734
2025-11-10 00:00:00-05:00,95.93000030517578
2025-11-11 00:00:00-05:00,95.91000366210938
2025-11-12 00:00:00-05:00,97.48999786376953
2025-11-13 00:00:00-05:00,98.11000061035156
2025-11-14 00:00:00-05:00,97.02999877929688
2025-11-17 00:00:00-05:00,95.36000061035156
2025-11-18 00:00:00-05:00,94.81999969482422
2025-11-19 00:00:00-05:00,94.33999633789062
2025-11-20 00:00:00-05:00,95.19999694824219
2025-11-21 00:00:00-05:00,98.69999694824219
2025-11-24 00:00:00-05:00,97.16000366210938
2025-11-25 00:00:00-05:00,99.5999984741211
2025-11-26 00:00:00-05:00,99.88999938964844
2025-11-28 00:00:00-05:00,100.04000091552734
2025-12-01 00:00:00-05:00,99.86000061035156
2025-12-02 00:00:00-05:00,100.25
2025-12-03 00:00:00-05:00,101.33999633789062
2025-12-04 00:00:00-05:00,100.66999816894531
2025-12-05 00:00:00-05:00,101.02999877929688
2025-12-08 00:00:00-05:00,100.37000274658203
2025-12-09 00:00:00-05:00,99.43000030517578
2025-12-10 00:00:00-05:00,100.44000244140625
2025-12-11 00:00:00-05:00,102.76000213623047
2025-12-12 00:00:00-05:00,103.54000091552734
2025-12-15 00:00:00-05:00,103.72000122070312
2025-12-16 00:00:00-05:00,103.69999694824219
2025-12-17 00:00:00-05:00,103.72000122070312
2025-12-18 00:00:00-05:00,102.91000366210938
2025-12-19 00:00:00-05:00,102.68000030517578
2025-12-22 00:00:00-05:00,103.37000274658203
2025-12-23 00:00:00-05:00,102.66999816894531
2025-12-24 00:00:00-05:00,103.55000305175781
2025-12-26 00:00:00-05:00,104.31999969482422
2025-12-29 00:00:00-05:00,104.25
2025-12-30 00:00:00-05:00,103.68000030517578
2025-12-31 00:00:00-05:00,102.45999908447266
2026-01-02 00:00:00-05:00,104.3499984741211
2026-01-05 00:00:00-05:00,105.20999908447266
2026-01-06 00:00:00-05:00,105.63999938964844
2026-01-07 00:00:00-05:00,103.9000015258789
2026-01-08 00:00:00-05:00,105.30000305175781
2026-01-09 00:00:00-05:00,107.41000366210938
2026-01-12 00:00:00-05:00,108.05000305175781
2026-01-13 00:00:00-05:00,107.58999633789062
2026-01-14 00:00:00-05:00,108.56999969482422
